1787
1801
1797
1801
1795
1795
1796
1795
1801
1802
1805
1799
1793
1792
1791
1792
1803
1813
1823
1830
1835
1837
1833
1832
1831
1833
1839
1844
1856
1866
1872
1881
1887
1891
1893
1899
1887
1889
1883
1874
1867
1853
1834
1814
1807
1801
1797
1797
1799
1801
1808
1811
1825
1838
1849
1859
1872
1876
1877
1873
1872
1877
1874
1872
1876
1878
1871
1875
1871
1878
1882
1885
1894
1897
1895
1894
1898
1893
1887
1883
1879
1875
1878
1877
1882
1897
1905
1914
1911
1904
1895
1884
1879
1885
1891
1904
1917
1920
1926
1931
1933
1931
1921
1917
1911
1915
1918
1921
1931
1937
1942
1947
1951
1952
1953
1957
1968
1984
2001
2026
2047
2079
2101
2115
2129
2134
2133
2129
2123
2111
2101
2086
2074
2062
2047
2030
2017
2007
2011
2017
2023
2032
2043
2062
2075
2087
2096
2105
2110
2114
2117
2123
2128
2143
2139
2139
2142
2138
2131
2126
2113
2103
2095
2085
2076
2073
2066
2059
2057
2043
2032
2018
2006
2001
2000
1998
1998
1990
1977
1967
1953
1947
1934
1919
1909
1904
1904
1907
1919
1935
1953
1968
1985
2000
2001
2000
1992
1977
1953
1935
1905
1872
1841
1820
1797
1784
1777
1776
1775
1774
1781
1793
1808
1826
1841
1851
1861
1869
1872
1872
1870
1862
1856
1854
1845
1840
1838
1834
1825
1817
1811
1807
1798
1802
1802
1803
1805
1808
1808
1814
1813
1807
1796
1783
1777
1776
1777
1787
1804
1817
1838
1846
1861
1869
1870
1863
1855
1840
1833
1815
1809
1811
1825
1840
1867
1894
1923
1962
1991
2021
2059
2091
2125
2163
2204
2250
2298
2350
2399
2441
2486
2533
2559
2611
2639
2665
2687
2707
2733
2742
2762
2786
2807
2823
2827
2801
2751
2677
2588
2487
2384
2287
2188
2099
2011
1941
1883
1839
1798
1781
1771
1771
1773
1778
1792
1806
1819
1827
1837
1837
1837
1823
1811
1805
1783
1776
1770
1769
1775
1781
1792
1807
1823
1840
1854
1863
1872
1872
1864
1857
1850
1840
1833
1831
1831
1836
1840
1846
1856
1862
1871
1874
1872
1888
1898
1906
1921
1938
1960
1975
1994
2005
2015
2018
2015
2000
1986
1968
1954
1940
1935
1923
1921
1927
1936
1962
1968
1987
2003
2017
2019
2018
2011
2001
1991
1979
1967
1964
1954
1948
1942
1938
1936
1934
1937
1944
1948
1953
1962
1968
1973
1983
1998
2006
2018
2020
2015
2014
2000
1984
1969
1962
1953
1953
1951
1967
1975
1976
1969
1967
1959
1959
1963
1968
1973
1983
1986
2003
2005
2016
2021
2021
2018
2010
2006
2010
2018
2028
2034
2039
2035
2035
2032
2026
2021
2014
2001
1993
1979
1968
1961
1957
1950
1957
1961
1968
1969
1973
1984
1991
2000
2011
2018
2027
2029
2027
2034
2016
2007
2000
1991
1979
1967
1959
1951
1949
1941
1937
1936
1936
1947
1959
1977
1991
2001
2012
2017
2023
2032
2033
2035
2032
2018
2003
1987
1975
1970
1973
1978
1982
1991
2000
2010
2007
2017
2029
2037
2047
2057
2065
2071
2081
2093
2096
2112
2127
2137
2145
2147
2143
2134
2127
2122
2125
2128
2142
2155
2163
2174
2176
2183
2186
2182
2179
2171
2160
2147
2130
2117
2107
2099
2096
2103
2107
2115
2127
2142
2159
2177
2199
2219
2225
2227
2240
2240
2239
2237
2238
2245
2251
2256
2257
2261
2263
2267
2267
2262
2257
2251
2245
2233
2224
2213
2205
2192
2179
2172
2173
2183
2195
2213
2227
2231
2231
2224
2215
2201
2180
2150
2121
2094
2065
2039
2030
2018
2019
2027
2035
2061
2079
2095
2103
2099
2096
2081
2064
2037
2013
1984
1957
1935
1911
1896
1879
1869
1858
1853
1850
1841
1838
1831
1823
1815
1808
1805
1797
1793
1795
1802
1808
1808
1813
1814
1812
1808
1806
1799
1797
1792
1789
1783
1781
1783
1792
1802
1808
1810
1810
1808
1803
1793
1783
1772
1757
1749
1744
1738
1733
1733
1734
1735
1740
1744
1750
1757
1763
1763
1760
1757
1749
1744
1735
1727
1715
1714
1711
1706
1698
1696
1701
1712
1723
1735
1742
1744
1746
1746
1750
1756
1763
1776
1787
1798
1818
1831
1849
1854
1855
1851
1841
1825
1819
1802
1792
1776
1767
1760
1755
1759
1771
1783
1795
1808
1819
1821
1818
1811
1804
1791
1776
1761
1753
1748
1745
1744
1742
1740
1743
1753
1765
1779
1787
1792
1795
1798
1799
1803
1810
1821
1831
1840
1845
1851
1858
1862
1870
1884
1890
1904
1915
1922
1925
1927
1922
1917
1911
1906
1903
1893
1887
1875
1868
1859
1855
1847
1840
1830
1821
1813
1813
1813
1811
1811
1811
1817
1825
1836
1849
1858
1857
1855
1855
1854
1850
1848
1849
1857
1859
1859
1857
1856
1858
1869
1871
1872
1875
1881
1882
1881
1878
1878
1881
1875
1872
1862
1849
1838
1827
1813
1808
1801
1794
1791
1792
1799
1805
1810
1822
1831
1840
1841
1840
1835
1830
1823
1809
1793
1782
1775
1765
1760
1760
1759
1755
1754
1756
1759
1764
1770
1775
1769
1770
1758
1751
1746
1744
1747
1760
1769
1783
1805
1819
1836
1840
1840
1837
1823
1806
1790
1774
1764
1757
1755
1758
1767
1778
1792
1804
1808
1818
1823
1831
1838
1843
1855
1867
1885
1902
1911
1919
1925
1919
1916
1910
1904
1899
1889
1881
1867
1856
1842
1826
1811
1798
1787
1776
1763
1755
1752
1759
1765
1777
1783
1792
1795
1797
1790
1798
1798
1802
1807
1812
1817
1823
1827
1826
1825
1819
1814
1806
1795
1792
1789
1789
1791
1791
1801
1808
1809
1814
1809
1804
1791
1787
1788
1797
1810
1826
1842
1862
1878
1893
1901
1904
1904
1895
1883
1871
1856
1843
1833
1823
1820
1815
1819
1823
1834
1839
1843
1851
1853
1855
1858
1857
1855
1852
1856
1840
1827
1823
1821
1815
1819
1820
1818
1821
1828
1824
1829
1829
1835
1836
1841
1845
1853
1862
1873
1883
1887
1893
1899
1902
1903
1904
1899
1890
1879
1870
1862
1855
1849
1850
1842
1844
1851
1859
1870
1872
1874
1878
1879
1879
1883
1883
1883
1878
1872
1869
1862
1857
1857
1867
1875
1887
1899
1909
1915
1921
1921
1925
1922
1920
1917
1911
1904
1902
1898
1892
1890
1889
1888
1889
1895
1904
1910
1917
1920
1921
1926
1925
1926
1923
1916
1907
1901
1895
1893
1890
1891
1893
1904
1919
1934
1951
1970
1993
2019
2032
2054
2066
2075
2075
2071
2064
2046
2030
2010
1995
1982
1977
1979
1977
1983
1991
2000
2006
2018
2022
2021
2021
2022
2018
2015
2012
2005
2000
1999
2000
2007
2023
2035
2055
2064
2069
2074
2078
2079
2075
2071
2067
2064
2065
2071
2075
2079
2087
2097
2107
2119
2128
2131
2139
2141
2135
2129
2125
2107
2095
2082
2065
2058
2047
2047
2064
2071
2079
2093
2097
2099
2111
2114
2117
2125
2128
2128
2133
2138
2141
2150
2159
2159
2167
2176
2176
2177
2180
2177
2173
2167
2159
2162
2160
2159
2155
2153
2149
2150
2150
2155
2161
2165
2166
2167
2157
2139
2117
2096
2077
2059
2039
2030
2017
2032
2040
2047
2065
2079
2095
2101
2107
2103
2101
2100
2099
2097
2093
2083
2081
2077
2073
2066
2059
2040
2032
2029
2027
2026
2019
2011
2000
1988
1979
1974
1968
1968
1967
1968
1970
1972
1971
1973
1972
1968
1961
1958
1955
1954
1949
1945
1941
1941
1939
1939
1941
1945
1951
1947
1943
1939
1937
1936
1929
1925
1921
1921
1919
1922
1923
1923
1925
1933
1940
1955
1963
1971
1974
1975
1973
1968
1963
1957
1951
1943
1937
1942
1954
1974
2001
2033
2082
2125
2171
2219
2266
2311
2353
2401
2443
2480
2517
2559
2605
2639
2669
2702
2723
2742
2755
2767
2773
2783
2791
2791
2800
2805
2815
2823
2814
2791
2751
2703
2640
2559
2499
2431
2367
2303
2241
2175
2107
2036
1983
1938
1904
1883
1866
1851
1840
1840
1835
1835
1834
1828
1825
1824
1826
1829
1838
1843
1856
1869
1882
1885
1887
1890
1883
1883
1877
1872
1869
1859
1854
1847
1851
1857
1869
1873
1877
1888
1900
1907
1920
1929
1936
1938
1935
1923
1915
1904
1895
1886
1877
1874
1867
1857
1857
1852
1847
1850
1856
1859
1863
1867
1871
1873
1881
1889
1896
1899
1899
1891
1887
1878
1872
1869
1858
1847
1835
1825
1819
1824
1835
1837
1855
1861
1872
1885
1895
1907
1911
1914
1911
1909
1905
1902
1894
1887
1884
1883
1875
1875
1879
1884
1893
1904
1915
1923
1934
1936
1951
1949
1950
1951
1948
1949
1951
1954
1957
1963
1968
1970
1969
1963
1953
1955
1942
1940
1938
1937
1936
1933
1929
1927
1931
1935
1937
1943
1953
1961
1969
1985
2000
2019
2033
2055
2070
2079
2085
2085
2081
2071
2062
2043
2027
2007
1991
1981
1974
1968
1968
1967
1968
1979
1995
2009
2026
2033
2043
2047
2058
2062
2062
2063
2061
2061
2062
2059
2047
2045
2045
2042
2045
2055
2065
2077
2086
2095
2101
2112
2116
2128
2141
2151
2160
2165
2173
2172
2173
2166
2159
2150
2135
2127
2117
2109
2099
2096
2097
2102
2112
2114
2122
2126
2128
2135
2145
2160
2177
2202
2227
2255
2275
2290
2306
2319
2330
2335
2337
2339
2327
2315
2298
2282
2267
2255
2242
2233
2226
2224
2225
2224
2229
2247
2262
2288
2313
2337
2361
2386
2415
2427
2435
2435
2431
2417
2399
2384
2371
2355
2346
2345
2351
2359
2373
2387
2399
2405
2407
2401
2396
2384
2383
2370
2363
2353
2348
2337
2325
2315
2299
2283
2266
2245
2227
2219
2199
2186
2167
2157
2149
2139
2135
2125
2112
2098
2089
2078
2065
2047
2035
2027
2017
2005
1998
1985
1976
1968
1963
1950
1938
1931
1922
1919
1913
1906
1902
1898
1893
1892
1892
1895
1901
1901
1904
1903
1901
1893
1878
1869
1857
1843
1830
1823
1815
1813
1821
1834
1844
1854
1861
1860
1859
1854
1841
1840
1837
1833
1837
1840
1840
1845
1844
1850
1853
1856
1867
1873
1875
1874
1870
1859
1851
1840
1839
1840
1837
1837
1831
1825
1823
1823
1834
1840
1847
1857
1866
1868
1872
1871
1875
1874
1873
1870
1871
1870
1872
1872
1871
1869
1858
1850
1843
1840
1840
1846
1847
1847
1841
1844
1840
1840
1840
1840
1847
1855
1860
1871
1873
1878
1879
1877
1873
1870
1866
1863
1867
1861
1862
1857
1853
1846
1840
1835
1827
1837
1841
1845
1858
1867
1871
1877
1879
1883
1885
1889
1888
1901
1910
1918
1921
1923
1918
1903
1887
1862
1840
1814
1795
1777
1768
1767
1764
1769
1776
1790
1809
1834
1847
1862
1875
1889
1899
1894
1893
1889
1882
1875
1876
1876
1875
1875
1873
1872
1872
1872
1872
1873
1875
1874
1873
1873
1872
1869
1864
1857
1855
1849
1845
1847
1849
1861
1873
1885
1895
1899
1898
1898
1893
1882
1872
1859
1843
1834
1823
1820
1822
1830
1837
1842
1851
1858
1868
1874
1881
1882
1879
1873
1863
1858
1855
1855
1861
1872
1879
1889
1885
1879
1874
1872
1867
1859
1850
1840
1831
1817
1809
1803
1798
1793
1786
1776
1776
1777
1785
1797
1808
1816
1834
1845
1856
1862
1869
1870
1872
1873
1871
1866
1856
1841
1838
1827
1824
1826
1831
1836
1837
1834
1828
1822
1816
1814
1805
1798
1790
1785
1779
1776
1779
1782
1785
1786
1786
1778
1778
1778
1779
1783
1789
1798
1803
1808
1812
1813
1810
1801
1807
1803
1793
1789
1776
1769
1755
1751
1753
1762
1773
1787
1802
1819
1834
1840
1849
1859
1840
1836
1822
1816
1808
1814
1808
1809
1811
1813
1819
1823
1832
1837
1840
1843
1845
1850
1847
1854
1856
1859
1861
1861
1857
1856
1842
1835
1825
1818
1809
1806
1802
1801
1801
1805
1805
1808
1803
1801
1797
1797
1797
1806
1808
1810
1811
1808
1821
1833
1839
1842
1847
1847
1840
1834
1827
1821
1815
1811
1808
1809
1808
1806
1807
1800
1802
1802
1804
1806
1806
1808
1812
1815
1819
1821
1815
1809
1805
1789
1772
1757
1742
1726
1713
1711
1712
1719
1728
1744
1757
1771
1779
1785
1792
1803
1808
1810
1808
1801
1790
1775
1762
1755
1758
1761
1770
1776
1781
1782
1785
1787
1786
1791
1789
1789
1787
1781
1776
1757
1739
1722
1705
1688
1680
1671
1670
1674
1677
1678
1680
1678
1675
1668
1664
1659
1662
1664
1673
1680
1694
1709
1723
1728
1742
1744
1745
1747
1752
1754
1751
1746
1744
1740
1737
1733
1731
1731
1726
1728
1728
1731
1737
1744
1753
1762
1772
1776
1777
1779
1777
1776
1770
1760
1750
1743
1736
1728
1722
1717
1718
1723
1726
1728
1731
1735
1744
1749
1753
1755
1760
1762
1769
1776
1776
1778
1779
1785
1785
1786
1783
1778
1776
1765
1761
1769
1776
1786
1798
1804
1807
1805
1808
1799
1792
1786
1776
1776
1770
1766
1764
1760
1766
1778
1792
1806
1826
1840
1850
1859
1863
1863
1861
1863
1868
1872
1871
1873
1882
1885
1894
1905
1911
1926
1933
1938
1945
1951
1954
1951
1954
1956
1955
1961
1968
1979
1988
1998
2000
1995
1984
1974
1968
1965
1963
1963
1967
1974
1984
1997
2009
2020
2029
2032
2032
2032
2027
2025
2011
2006
2003
2006
1999
1995
1995
1997
1996
2000
1993
1991
1989
1994
1995
1998
1989
1999
1996
1997
1995
1989
1986
1982
1974
1968
1961
1959
1961
1965
1968
1965
1959
1962
1952
1943
1934
1921
1910
1894
1877
1867
1856
1847
1842
1850
1852
1858
1863
1866
1867
1863
1862
1859
1855
1847
1840
1833
1821
1808
1794
1779
1764
1750
1744
1744
1751
1767
1787
1808
1822
1842
1846
1847
1845
1842
1839
1836
1825
1819
1809
1798
1788
1776
1766
1758
1754
1750
1755
1764
1772
1776
1781
1786
1791
1797
1801
1807
1821
1840
1858
1879
1904
1935
1963
1991
2021
2054
2077
2100
2123
2151
2180
2223
2259
2309
2354
2407
2459
2513
2559
2614
2643
2667
2683
2691
2690
2695
2691
2687
2687
2693
2685
2672
2647
2615
2559
2517
2459
2396
2326
2262
2195
2131
2063
1988
1919
1856
1795
1745
1707
1674
1653
1641
1633
1631
1634
1634
1636
1642
1649
1660
1670
1680
1696
1707
1712
1722
1730
1739
1746
1754
1762
1764
1762
1761
1762
1761
1762
1763
1765
1767
1771
1775
1777
1786
1787
1787
1776
1759
1744
1731
1721
1712
1712
1712
1722
1729
1739
1746
1760
1768
1772
1772
1771
1765
1765
1761
1754
1744
1742
1734
1727
1728
1721
1722
1725
1728
1740
1744
1747
1755
1757
1761
1773
1781
1791
1803
1808
1814
1815
1810
1799
1781
1764
1751
1744
1744
1753
1775
1794
1808
1826
1830
1843
1845
1859
1861
1859
1855
1845
1843
1840
1835
1825
1815
1811
1811
1814
1818
1818
1826
1839
1851
1866
1877
1884
1885
1875
1866
1853
1838
1818
1806
1792
1789
1790
1793
1803
1815
1835
1854
1872
1889
1904
1919
1933
1935
1938
1936
1926
1914
1901
1884
1872
1861
1859
1857
1860
1867
1877
1897
1911
1930
1939
1952
1963
1973
1983
2000
1998
2003
2003
2017
2023
2026
2023
2019
2015
2005
2000
1997
1990
1986
1979
1975
1973
1981
1985
1997
2005
2014
2026
2035
2045
2059
2061
2063
2064
2067
2067
2068
2066
2067
2071
2073
2071
2075
2078
2090
2096
2111
2127
2151
2177
2201
2223
2242
2255
2261
2266
2263
2265
2261
2259
2256
2256
2257
2261
2262
2267
2273
2276
2273
2270
2267
2265
2267
2272
2285
2292
2307
2320
2327
2339
2357
2378
2391
2405
2417
2423
2435
2446
2453
2463
2463
2467
2478
2483
2487
2491
2494
2491
2490
2485
2483
2480
2480
2476
2467
2455
2443
2431
2429
2422
2423
2423
2431
2435
2439
2439
2439
2429
2416
2404
2391
2384
2383
2373
2365
2349
2333
2319
2303
2288
2275
2263
2256
2245
2231
2221
2209
2192
2181
2166
2153
2133
2115
2098
2085
2077
2067
2064
2061
2059
2058
2047
2058
2058
2058
2055
2045
2031
2012
2000
1981
1962
1936
1922
1913
1904
1900
1895
1890
1891
1883
1879
1886
1895
1903
1909
1921
1925
1923
1919
1919
1919
1924
1930
1935
1936
1939
1936
1939
1937
1940
1936
1939
1938
1933
1921
1911
1904
1901
1903
1904
1904
1902
1895
1887
1878
1869
1872
1874
1874
1873
1873
1872
1873
1878
1873
1871
1866
1859
1859
1857
1862
1866
1871
1878
1889
1902
1913
1921
1931
1936
1939
1937
1934
1923
1911
1901
1891
1885
1886
1891
1900
1908
1915
1919
1931
1933
1936
1938
1937
1939
1938
1938
1936
1926
1914
1902
1887
1871
1859
1854
1847
1847
1841
1842
1849
1858
1867
1877
1889
1902
1910
1915
1921
1922
1923
1923
1920
1919
1907
1903
1893
1884
1880
1875
1870
1872
1865
1862
1855
1857
1857
1857
1858
1855
1850
1842
1838
1835
1831
1831
1831
1829
1827
1826
1826
1835
1842
1850
1856
1861
1871
1879
1885
1888
1885
1879
1876
1871
1869
1862
1855
1855
1856
1857
1857
1858
1861
1866
1875
1887
1899
1904
1909
1914
1914
1907
1904
1905
1893
1885
1878
1875
1873
1873
1879
1890
1901
1913
1921
1936
1934
1936
1936
1937
1936
1937
1941
1939
1943
1943
1950
1946
1939
1936
1927
1927
1923
1919
1919
1921
1925
1931
1934
1933
1936
1936
1936
1937
1939
1949
1954
1952
1951
1958
1955
1956
1957
1949
1949
1938
1934
1930
1919
1918
1909
1903
1887
1879
1875
1877
1882
1899
1917
1933
1947
1959
1968
1971
1968
1957
1942
1923
1904
1885
1869
1857
1856
1853
1854
1860
1867
1877
1887
1902
1921
1939
1953
1969
1982
1994
2000
2000
1995
1987
1970
1958
1947
1936
1927
1921
1917
1915
1914
1914
1913
1914
1911
1919
1922
1922
1924
1927
1934
1937
1945
1951
1966
1966
1968
1968
1968
1967
1958
1951
1939
1938
1936
1931
1921
1918
1918
1920
1925
1923
1934
1939
1945
1951
1955
1967
1975
1978
1977
1973
1969
1965
1963
1957
1953
1953
1953
1953
1950
1959
1962
1957
1951
1955
1968
1978
1984
1986
1990
1979
1971
1967
1957
1951
1942
1938
1936
1936
1940
1949
1955
1967
1968
1979
1984
1986
1989
1991
1994
1995
1999
1984
1981
1968
1968
1968
1968
1971
1971
1969
1968
1970
1969
1968
1959
1954
1949
1947
1943
1940
1939
1940
1939
1951
1964
1968
1976
1987
1995
2000
2003
2000
1995
1984
1974
1962
1952
1946
1941
1943
1952
1967
1983
1999
2008
2018
2023
2030
2032
2033
2032
2024
2011
1995
1975
1958
1935
1931
1911
1904
1900
1898
1900
1901
1902
1905
1911
1923
1934
1946
1962
1973
1978
1987
1998
2000
2004
2005
2000
1999
2007
2010
2009
2011
2005
2007
2005
2007
2019
2031
2045
2061
2070
2078
2079
2078
2077
2071
2064
2062
2058
2047
2047
2055
2063
2075
2087
2098
2107
2112
2113
2110
2102
2096
2085
2069
2047
2037
2027
2022
2017
2015
2019
2032
2039
2059
2065
2076
2079
2079
2082
2079
2077
2079
2086
2091
2095
2098
2106
2113
2123
2125
2119
2113
2107
2102
2099
2091
2082
2074
2079
2074
2075
2078
2079
2085
2091
2091
2096
2096
2103
2123
2128
2142
2150
2160
2174
2183
2195
2199
2209
2219
2221
2219
2215
2213
2211
2211
2214
2224
2231
2241
2247
2253
2254
2253
2247
2240
2237
2235
2238
2240
2246
2249
2256
2267
2278
2287
2293
2310
2327
2347
2359
2374
2384
2383
2375
2363
2347
2322
2303
2288
2270
2256
2243
2235
2225
2222
2223
2218
2214
2211
2207
2203
2206
2207
2205
2203
2199
2201
2195
2191
2178
2169
2158
2145
2139
2135
2137
2143
2157
2170
2178
2192
2201
2207
2205
2198
2192
2175
2157
2138
2115
2096
2073
2055
2033
2019
2013
2015
2023
2043
2071
2095
2115
2130
2142
2147
2149
2146
2143
2141
2139
2132
2128
2121
2110
2099
2091
2085
2078
2073
2075
2075
2078
2071
2071
2077
2083
2090
2094
2101
2110
2118
2126
2130
2132
2135
2141
2139
2135
2128
2122
2113
2112
2112
2111
2106
2102
2103
2108
2111
2119
2131
2154
2175
2199
2231
2271
2305
2346
2387
2435
2479
2524
2559
2631
2687
2742
2791
2832
2875
2911
2941
2967
2987
3003
3023
3043
3061
3088
3111
3135
3143
3135
3103
3039
2961
2871
2779
2689
2603
2510
2427
2351
2278
2211
2159
2113
2078
2055
2032
2017
2005
1999
1990
1980
1970
1957
1938
1926
1917
1910
1911
1921
1937
1962
1983
2001
2015
2025
2030
2032
2032
2032
2027
2018
2013
2005
1999
1994
1998
1997
1995
1991
1995
1998
2005
2014
2020
2031
2033
2043
2045
2047
2035
2027
2014
2001
1999
1987
1984
1979
1977
1975
1974
1968
1968
1965
1959
1954
1947
1936
1936
1931
1931
1931
1936
1950
1966
1977
1991
2000
2000
2000
1995
1994
1987
1971
1959
1937
1923
1910
1901
1899
1903
1907
1919
1929
1941
1956
1971
1986
2000
2005
2011
2011
2010
2002
2001
2002
2003
2009
2011
2011
2011
2007
2000
2000
1994
1986
1985
1982
1982
1981
1985
1986
1982
1979
1969
1968
1968
1967
1959
1961
1956
1955
1955
1958
1961
1957
1954
1947
1941
1936
1937
1939
1938
1942
1947
1940
1939
1936
1933
1929
1927
1931
1936
1947
1961
1971
1985
2001
2015
2030
2042
2061
2070
2084
2094
2096
2097
2096
2091
2079
2065
2055
2042
2034
2032
2032
2035
2045
2064
2077
2087
2098
2107
2107
2105
2096
2090
2086
2082
2084
2089
2095
2103
2115
2126
2134
2146
2158
2166
2180
2195
2210
2224
2235
2245
2253
2252
2255
2256
2255
2255
2251
2241
2231
2224
2215
2210
2207
2205
2197
2193
2190
2192
2195
2209
2219
2229
2240
2251
2259
2271
2279
2287
2291
2299
2311
2325
2339
2352
2359
2363
2366
2363
2357
2352
2351
2351
2352
2362
2371
2381
2384
2387
2391
2399
2403
2401
2399
2395
2397
2397
2389
2391
2389
2391
2384
2386
2386
2390
2395
2399
2406
2415
2416
2423
2429
2433
2430
2429
2423
2427
2423
2419
2415
2403
2388
2379
2373
2367
2367
2359
2353
2349
2338
2330
2320
2311
2295
2271
2250
2227
2207
2192
2177
2167
2160
2150
2143
2145
2141
2137
2128
2116
2101
2087
2073
2061
2041
2032
2027
2025
2029
2031
2039
2043
2045
2047
2047
2057
2058
2062
2065
2076
2074
2069
2066
2065
2064
2062
2063
2067
2070
2083
2095
2103
2111
2111
2109
2102
2096
2095
2090
2091
2091
2095
2105
2117
2128
2139
2147
2156
2159
2161
2158
2143
2138
2127
2115
2097
2081
2071
2062
2055
2045
2043
2042
2045
2047
2060
2067
2079
2090
2096
2096
2098
2101
2099
2099
2101
2099
2102
2102
2105
2111
2115
2119
2121
2118
2113
2106
2099
2096
2095
2095
2087
2081
2079
2083
2082
2085
2083
2081
2079
2078
2077
2064
2047
2044
2039
2039
2039
2046
2059
2069
2082
2086
2089
2091
2090
2085
2077
2066
2062
2047
2039
2039
2039
2037
2033
2032
2032
2032
2031
2032
2032
2038
2043
2047
2065
2082
2097
2114
2126
2129
2131
2131
2128
2112
2096
2071
2047
2031
2011
1997
1988
1984
1986
2000
2018
2039
2066
2083
2096
2103
2099
2097
2085
2069
2046
2028
2007
1995
1989
1977
1973
1974
1975
1982
1985
1987
1990
1997
2001
2015
2021
2025
2029
2023
2017
2007
1998
1982
1971
1958
1948
1937
1936
1935
1935
1937
1939
1946
1949
1956
1967
1974
1983
1991
1987
1984
1979
1973
1971
1963
1961
1954
1955
1955
1959
1962
1966
1965
1965
1963
1955
1947
1936
1923
1910
1902
1888
1878
1882
1887
1893
1903
1909
1919
1926
1932
1935
1933
1930
1919
1913
1905
1904
1903
1904
1906
1910
1913
1915
1906
1904
1904
1904
1906
1907
1915
1914
1910
1905
1895
1887
1872
1867
1856
1854
1853
1857
1865
1871
1867
1867
1866
1865
1856
1851
1849
1854
1847
1851
1857
1862
1871
1873
1874
1872
1870
1859
1856
1847
1847
1845
1844
1842
1842
1841
1839
1835
1830
1830
1835
1840
1845
1847
1851
1855
1843
1840
1834
1834
1829
1836
1833
1827
1822
1811
1802
1792
1786
1785
1784
1786
1787
1792
1799
1800
1801
1801
1803
1802
1798
1792
1789
1786
1789
1777
1776
1771
1767
1765
1771
1776
1779
1785
1786
1781
1779
1789
1803
1817
1831
1840
1844
1843
1842
1843
1851
1854
1857
1865
1873
1876
1879
1882
1886
1889
1892
1891
1888
1887
1887
1890
1890
1893
1889
1885
1881
1879
1878
1874
1875
1875
1872
1867
1853
1838
1822
1806
1794
1788
1779
1776
1776
1781
1786
1787
1786
1789
1783
1791
1786
1787
1783
1781
1778
1781
1782
1776
1774
1764
1760
1755
1754
1748
1749
1747
1747
1747
1749
1746
1744
1741
1743
1745
1755
1759
1759
1755
1744
1739
1735
1729
1729
1733
1744
1760
1773
1781
1786
1791
1791
1793
1789
1779
1774
1763
1757
1751
1750
1750
1744
1750
1750
1755
1759
1765
1773
1776
1783
1787
1792
1791
1785
1786
1788
1792
1797
1803
1799
1804
1802
1796
1793
1791
1791
1791
1792
1787
1787
1778
1776
1775
1776
1778
1781
1787
1792
1802
1808
1815
1820
1826
1830
1826
1826
1827
1829
1833
1840
1843
1849
1853
1856
1859
1861
1867
1872
1873
1879
1882
1881
1877
1873
1872
1872
1872
1871
1874
1878
1879
1883
1886
1885
1885
1879
1873
1869
1865
1856
1843
1836
1830
1826
1835
1829
1835
1840
1855
1872
1899
1923
1949
1974
1993
2000
2003
2011
2019
2020
2023
2024
2021
2020
2017
2019
2023
2027
2032
2033
2039
2039
2042
2043
2038
2030
2023
2010
2000
1995
1986
1980
1979
1989
2000
2017
2032
2047
2066
2091
2094
2096
2094
2087
2078
2059
2033
2018
2000
1989
1979
1968
1963
1958
1949
1937
1931
1918
1904
1893
1887
1890
1891
1903
1909
1910
1919
1924
1936
1947
1963
1969
1977
1977
1975
1971
1972
1973
1969
1967
1957
1948
1936
1927
1918
1905
1893
1875
1862
1846
1833
1818
1808
1802
1795
1798
1808
1813
1823
1838
1854
1872
1889
1905
1919
1927
1933
1925
1915
1910
1910
1905
1904
1901
1893
1884
1876
1863
1872
1872
1872
1875
1878
1875
1874
1872
1869
1856
1847
1840
1831
1823
1827
1840
1869
1904
1936
1975
2013
2047
2086
2113
2141
2166
2194
2228
2267
2309
2362
2416
2477
2531
2559
2627
2669
2695
2711
2723
2735
2751
2768
2787
2807
2823
2839
2855
2859
2851
2819
2779
2718
2642
2555
2467
2381
2299
2219
2139
2061
1984
1925
1878
1840
1808
1787
1765
1757
1750
1744
1744
1744
1749
1757
1762
1762
1761
1755
1753
1745
1742
1730
1734
1740
1747
1756
1765
1775
1781
1788
1789
1785
1779
1771
1757
1745
1736
1729
1732
1738
1743
1747
1753
1759
1765
1767
1769
1773
1774
1773
1774
1771
1774
1769
1765
1772
1766
1768
1767
1773
1775
1778
1783
1781
1776
1766
1754
1737
1723
1712
1701
1689
1687
1685
1689
1694
1707
1712
1715
1727
1736
1744
1756
1762
1765
1766
1763
1762
1768
1767
1767
1767
1761
1755
1751
1743
1735
1729
1731
1732
1734
1735
1737
1741
1744
1750
1762
1769
1772
1774
1772
1768
1762
1756
1750
1747
1744
1739
1729
1730
1728
1728
1728
1728
1734
1735
1739
1742
1735
1731
1725
1717
1710
1698
1692
1690
1697
1710
1723
1744
1762
1779
1796
1817
1823
1827
1827
1821
1813
1796
1803
1799
1794
1790
1783
1776
1776
1778
1790
1799
1801
1803
1805
1807
1806
1808
1808
1806
1808
1803
1806
1808
1809
1819
1831
1847
1865
1872
1892
1901
1904
1914
1918
1920
1920
1921
1923
1930
1931
1936
1938
1955
1969
1990
2006
2019
2031
2032
2032
2027
2017
2005
2000
1997
1991
1991
1995
2001
2013
2027
2035
2047
2064
2074
2079
2086
2094
2097
2107
2115
2128
2129
2143
2158
2164
2175
2179
2183
2189
2192
2192
2199
2210
2223
2235
2245
2257
2266
2271
2274
2277
2285
2289
2297
2309
2315
2319
2319
2311
2313
2309
2306
2305
2306
2314
2320
2331
2343
2355
2366
2367
2370
2378
2379
2375
2367
2358
2350
2339
2335
2334
2335
2339
2352
2353
2359
2361
2352
2343
2327
2319
2305
2295
2279
2267
2253
2243
2234
2223
2214
2203
2192
2179
2161
2140
2118
2097
2081
2060
2035
2027
2025
2019
2017
2015
2011
2007
2003
2000
1990
1977
1963
1943
1926
1914
1905
1898
1895
1893
1894
1887
1884
1879
1881
1872
1879
1873
1872
1872
1871
1869
1862
1855
1851
1845
1843
1851
1842
1840
1835
1837
1841
1846
1847
1844
1840
1834
1825
1808
1797
1786
1776
1774
1766
1771
1776
1783
1797
1806
1823
1834
1847
1867
1878
1887
1892
1889
1887
1877
1869
1856
1842
1831
1824
1823
1823
1824
1829
1837
1840
1845
1850
1851
1851
1847
1850
1853
1851
1850
1843
1840
1835
1827
1827
1827
1831
1837
1836
1845
1846
1851
1854
1860
1867
1872
1882
1890
1898
1903
1907
1915
1911
1935
1948
1951
1964
1968
1977
1979
1983
1986
1983
1987
1975
1962
1942
1929
1917
1909
1917
1922
1935
1947
1961
1969
1969
1967
1953
1942
1927
1911
1898
1888
1882
1881
1889
1904
1913
1920
1922
1925
1931
1935
1936
1937
1936
1934
1935
1930
1923
1909
1895
1881
1872
1872
1873
1877
1886
1894
1904
1911
1923
1936
1955
1969
1985
1999
2010
2023
2019
2029
2019
2005
1990
1977
1961
1943
1932
1931
1922
1919
1910
1910
1904
1903
1910
1921
1936
1943
1952
1954
1951
1941
1941
1936
1937
1941
1941
1941
1938
1930
1929
1922
1921
1915
1914
1914
1913
1913
1911
1916
1918
1919
1917
1907
1906
1904
1904
1905
1907
1907
1917
1922
1936
1936
1942
1946
1950
1956
1961
1966
1968
1966
1959
1952
1941
1927
1918
1904
1900
1903
1906
1910
1911
1911
1911
1921
1930
1940
1952
1963
1969
1973
1980
1981
1977
1967
1950
1931
1916
1902
1885
1879
1875
1879
1889
1904
1918
1931
1939
1948
1952
1953
1952
1950
1943
1936
1926
1913
1898
1881
1870
1865
1867
1869
1879
1889
1895
1904
1906
1909
1911
1913
1911
1907
1902
1894
1893
1888
1893
1895
1900
1902
1902
1899
1898
1895
1889
1882
1872
1869
1862
1862
1857
1859
1862
1867
1870
1872
1872
1863
1855
1840
1826
1808
1798
1791
1779
1775
1767
1765
1767
1769
1771
1775
1776
1785
1790
1794
1792
1791
1790
1792
1795
1805
1808
1807
1815
1814
1812
1810
1814
1825
1839
1842
1843
1853
1851
1852
1850
1847
1840
1826
1822
1813
1811
1810
1817
1823
1838
1827
1832
1834
1838
1837
1839
1838
1839
1834
1829
1834
1836
1843
1854
1869
1873
1876
1871
1854
1839
1822
1803
1789
1776
1773
1766
1767
1765
1769
1771
1777
1787
1794
1804
1814
1821
1827
1825
1823
1821
1813
1803
1791
1781
1776
1776
1777
1786
1792
1802
1812
1808
1807
1798
1790
1779
1776
1768
1763
1761
1770
1777
1789
1795
1802
1804
1805
1799
1792
1787
1781
1779
1782
1776
1778
1777
1776
1772
1771
1772
1776
1776
1787
1786
1779
1779
1782
1790
1797
1808
1818
1827
1834
1836
1838
1844
1856
1869
1878
1883
1885
1885
1884
1882
1873
1869
1856
1839
1826
1812
1799
1792
1789
1790
1797
1803
1808
1808
1810
1817
1811
1811
1809
1806
1803
1795
1792
1787
1786
1786
1800
1808
1823
1839
1843
1847
1851
1849
1846
1841
1835
1819
1808
1795
1795
1802
1814
1830
1845
1858
1872
1879
1889
1889
1889
1879
1866
1866
1854
1846
1840
1840
1837
1840
1840
1841
1841
1842
1841
1844
1850
1854
1854
1861
1863
1872
1875
1887
1891
1905
1908
1915
1919
1914
1904
1895
1879
1870
1855
1850
1846
1854
1863
1875
1891
1905
1911
1934
1942
1949
1949
1946
1941
1938
1937
1936
1936
1943
1955
1969
1987
2005
2021
2037
2063
2080
2095
2101
2106
2105
2099
2090
2082
2070
2059
2038
2019
2003
1989
1979
1970
1966
1965
1962
1963
1966
1968
1971
1974
1979
1981
1979
1975
1975
1981
1982
1986
1988
1987
1985
1973
1968
1957
1949
1953
1945
1947
1950
1951
1951
1943
1943
1938
1936
1933
1923
1919
1908
1895
1885
1872
1856
1843
1835
1827
1818
1818
1823
1829
1838
1843
1854
1861
1862
1861
1856
1847
1843
1843
1846
1846
1845
1841
1833
1822
1808
1794
1785
1785
1771
1771
1775
1781
1792
1793
1794
1795
1791
1792
1800
1802
1808
1807
1808
1805
1807
1811
1813
1815
1806
1799
1798
1803
1809
1812
1839
1855
1878
1906
1935
1968
2001
2032
2062
2086
2111
2139
2173
2215
2256
2309
2359
2418
2471
2526
2559
2610
2640
2659
2671
2677
2683
2687
2687
2699
2706
2719
2725
2715
2694
2655
2605
2539
2463
2382
2297
2215
2133
2059
1981
1917
1863
1822
1788
1765
1752
1745
1745
1750
1755
1757
1754
1751
1744
1741
1734
1725
1713
1703
1693
1678
1664
1654
1655
1665
1677
1688
1710
1723
1742
1757
1776
1793
1808
1809
1812
1811
1808
1808
1806
1808
1808
1808
1805
1798
1792
1790
1786
1786
1787
1785
1779
1778
1782
1782
1776
1786
1783
1778
1776
1773
1773
1766
1773
1776
1780
1789
1793
1796
1792
1790
1786
1785
1789
1791
1796
1798
1793
1789
1780
1776
1773
1776
1776
1792
1808
1830
1855
1872
1885
1894
1895
1890
1887
1873
1872
1862
1855
1846
1842
1842
1840
1847
1853
1856
1856
1863
1869
1883
1890
1901
1904
1905
1904
1904
1899
1889
1876
1872
1862
1851
1840
1837
1840
1842
1855
1869
1887
1904
1927
1942
1962
1971
1975
1976
1975
1975
1970
1971
1970
1977
1974
1971
1968
1965
1962
1958
1956
1954
1959
1962
1967
1968
1968
1967
1967
1963
1958
1951
1939
1936
1937
1939
1944
1947
1947
1951
1951
1955
1964
1969
1982
1991
2000
2006
2010
2013
2003
2011
2010
2009
2003
2003
2005
2005
2005
2007
2011
2021
2029
2037
2045
2047
2047
2047
2038
2040
2023
2007
2000
1994
1988
1993
2000
2011
2020
2031
2032
2037
2038
2038
2038
2038
2037
2032
2032
2031
2030
2029
2037
2047
2055
2065
2079
2091
2103
2111
2113
2118
2125
2128
2129
2130
2130
2129
2128
2125
2126
2129
2135
2145
2159
2166
2175
2183
2191
2194
2197
2199
2199
2205
2211
2221
2224
2233
2234
2230
2236
2234
2231
2231
2231
2233
2239
2243
2245
2251
2247
2246
2245
2235
2224
2208
2191
2170
2157
2135
2122
2111
2103
2101
2102
2103
2109
2111
2117
2123
2118
2115
2107
2096
2083
2064
2043
2023
2000
1979
1952
1929
1905
1886
1869
1855
1844
1841
1837
1833
1818
1822
1814
1810
1808
1805
1795
1794
1788
1781
1781
1785
1786
1786
1782
1775
1766
1757
1744
1729
1712
1696
1681
1678
1680
1684
1695
1711
1723
1734
1744
1746
1749
1746
1747
1747
1745
1741
1733
1731
1728
1728
1724
1722
1715
1717
1716
1725
1721
1718
1715
1714
1713
1721
1728
1734
1739
1751
1762
1773
1777
1775
1771
1762
1755
1744
1734
1717
1706
1697
1696
1699
1711
1724
1729
1735
1744
1747
1759
1771
1776
1786
1795
1798
1801
1802
1802
1802
1807
1804
1805
1793
1786
1773
1753
1738
1722
1709
1699
1693
1687
1694
1702
1718
1738
1757
1775
1789
1795
1801
1801
1794
1785
1776
1759
1745
1729
1723
1716
1714
1722
1733
1744
1756
1771
1777
1788
1787
1786
1780
1776
1773
1766
1767
1775
1779
1790
1798
1808
1808
1808
1805
1792
1783
1772
1761
1759
1755
1751
1749
1751
1749
1751
1747
1742
1731
1725
1723
1725
1726
1730
1739
1744
1747
1749
1754
1759
1753
1754
1751
1749
1746
1748
1747
1754
1757
1762
1776
1791
1810
1830
1846
1856
1859
1858
1853
1841
1828
1811
1799
1785
1770
1757
1745
1741
1739
1743
1744
1746
1749
1750
1750
1745
1744
1745
1749
1749
1745
1744
1742
1740
1735
1731
1729
1730
1733
1742
1750
1763
1776
1785
1792
1786
1781
1771
1755
1744
1734
1724
1717
1715
1723
1727
1735
1744
1750
1759
1763
1769
1775
1774
1774
1766
1758
1755
1744
1745
1751
1761
1769
1776
1778
1783
1792
1797
1805
1807
1808
1808
1804
1798
1792
1787
1776
1765
1751
1740
1728
1719
1716
1720
1728
1739
1754
1777
1802
1835
1858
1887
1910
1927
1937
1938
1937
1925
1910
1895
1875
1861
1843
1830
1814
1809
1792
1779
1776
1766
1762
1767
1776
1798
1817
1842
1859
1885
1904
1917
1922
1918
1914
1905
1904
1894
1887
1886
1883
1888
1886
1887
1888
1893
1899
1902
1899
1895
1894
1890
1889
1893
1891
1891
1886
1877
1874
1872
1873
1879
1886
1894
1893
1900
1903
1904
1906
1906
1910
1914
1919
1920
1920
1922
1924
1923
1914
1906
1904
1889
1875
1867
1854
1842
1837
1837
1837
1836
1831
1825
1826
1824
1825
1830
1840
1841
1841
1841
1843
1845
1849
1855
1857
1863
1866
1870
1874
1872
1874
1883
1883
1886
1885
1886
1878
1875
1872
1872
1872
1872
1873
1878
1878
1885
1887
1885
1879
1873
1863
1856
1851
1854
1858
1865
1872
1877
1879
1886
1883
1875
1872
1863
1858
1855
1850
1847
1844
1845
1849
1852
1855
1859
1865
1865
1871
1870
1871
1872
1867
1873
1873
1875
1874
1879
1879
1883
1882
1884
1885
1887
1888
1884
1885
1878
1883
1887
1888
1891
1893
1893
1895
1900
1904
1911
1922
1926
1926
1917
1905
1894
1881
1869
1872
1867
1878
1891
1909
1926
1943
1963
1971
1975
1983
1983
1985
1983
1971
1961
1943
1931
1919
1909
1904
1895
1890
1891
1894
1901
1904
1915
1917
1933
1937
1938
1943
1947
1952
1955
1959
1959
1955
1953
1952
1954
1962
1971
1987
1996
2000
1997
1991
1986
1981
1978
1975
1971
1975
1977
1978
1989
2000
2015
2027
2033
2038
2047
2047
2059
2064
2071
2080
2089
2097
2099
2108
2110
2109
2109
2111
2111
2111
2107
2102
2096
2098
2101
2109
2115
2118
2119
2118
2112
2106
2094
2083
2077
2064
2047
2043
2042
2043
2046
2036
2047
2047
2047
2057
2060
2058
2047
2043
2038
2031
2017
2007
2000
2000
2000
1998
2001
2009
2014
2019
2021
2015
2010
2005
1997
1988
1977
1967
1954
1941
1936
1933
1923
1914
1899
1885
1874
1867
1854
1843
1840
1837
1830
1830
1823
1818
1808
1796
1783
1776
1769
1763
1763
1763
1762
1765
1771
1770
1774
1770
1768
1764
1763
1764
1761
1765
1770
1773
1776
1785
1797
1799
1797
1803
1794
1791
1783
1776
1763
1751
1744
1737
1731
1725
1726
1718
1713
1709
1703
1695
1689
1683
1680
1680
1673
1674
1675
1685
1701
1713
1737
1764
1796
1835
1881
1925
1968
2007
2043
2090
2125
2159
2192
2231
2271
2314
2359
2413
2451
2508
2553
2599
2631
2651
2671
2687
2703
2719
2731
2742
2751
2758
2765
2743
2709
2663
2603
2519
2441
2358
2266
2182
2101
2027
1958
1906
1869
1841
1835
1835
1838
1840
1843
1845
1843
1842
1836
1822
1802
1773
1746
1725
1711
1696
1697
1698
1705
1709
1715
1733
1753
1774
1790
1806
1814
1826
1837
1840
1842
1840
1837
1825
1815
1808
1799
1794
1792
1790
1789
1780
1780
1777
1790
1794
1806
1813
1819
1825
1824
1827
1821
1815
1811
1810
1811
1813
1818
1815
1818
1824
1835
1847
1862
1874
1891
1904
1910
1911
1911
1905
1889
1877
1870
1859
1855
1850
1850
1853
1855
1858
1858
1861
1858
1863
1873
1885
1895
1906
1915
1919
1929
1926
1920
1911
1903
1891
1876
1867
1858
1859
1867
1883
1891
1902
1905
1905
1906
1905
1904
1899
1890
1875
1867
1861
1860
1866
1872
1893
1914
1933
1950
1965
1970
1978
1974
1972
1968
1954
1945
1931
1920
1911
1905
1907
1904
1907
1911
1911
1911
1907
1914
1920
1930
1936
1942
1951
1954
1954
1953
1954
1954
1955
1963
1971
1986
1996
2000
2000
1999
2000
2002
2000
1998
1997
1993
1995
1991
1999
2007
2018
2032
2042
2055
2057
2059
2062
2065
2065
2067
2065
2064
2047
2041
2035
2032
2030
2032
2043
2065
2082
2098
2111
2114
2123
2123
2135
2150
2163
2177
2181
2181
2176
2167
2158
2148
2141
2145
2151
2160
2161
2183
2195
2210
2221
2224
2221
2211
2195
2192
2175
2165
2158
2153
2147
2149
2159
2167
2186
2211
2236
2259
2287
2303
2315
2315
2307
2293
2283
2274
2275
2271
2277
2287
2299
2307
2314
2319
2320
2320
2321
2320
2319
2310
2303
2295
2299
2303
2313
2326
2343
2367
2374
2382
2389
2387
2383
2370
2355
2339
2319
2295
2275
2257
2255
2247
2240
2239
2239
2237
2227
2229
2213
2202
2191
2175
2159
2139
2119
2101
2090
2073
2063
2047
2045
2038
2033
2032
2031
2033
2035
2038
2037
2035
2033
2032
2029
2021
2015
2005
1996
1979
1961
1939
1916
1891
1869
1850
1839
1838
1837
1851
1868
1887
1901
1910
1917
1919
1921
1922
1927
1931
1931
1941
1935
1927
1931
1931
1930
1925
1916
1904
1895
1885
1867
1849
1830
1814
1803
1792
1797
1798
1800
1807
1810
1817
1828
1840
1854
1866
1872
1879
1883
1881
1879
1877
1873
1872
1862
1853
1840
1828
1813
1807
1800
1799
1799
1799
1807
1808
1814
1821
1830
1839
1845
1851
1846
1843
1840
1831
1838
1840
1840
1845
1854
1862
1872
1873
1878
1868
1872
1872
1872
1865
1859
1850
1838
1826
1808
1799
1797
1792
1793
1791
1791
1795
1798
1805
1814
1825
1834
1837
1840
1840
1839
1833
1826
1822
1820
1821
1825
1835
1839
1843
1847
1856
1858
1862
1862
1872
1874
1881
1890
1891
1893
1888
1883
1873
1863
1851
1835
1821
1803
1787
1776
1787
1781
1796
1808
1823
1838
1853
1870
1883
1904
1915
1925
1930
1931
1929
1927
1918
1906
1904
1903
1902
1904
1906
1907
1904
1903
1893
1883
1872
1865
1854
1840
1840
1840
1840
1844
1845
1844
1845
1841
1840
1835
1830
1824
1822
1819
1825
1837
1846
1858
1873
1891
1899
1904
1902
1898
1886
1872
1858
1841
1827
1822
1818
1825
1835
1850
1861
1872
1878
1879
1883
1883
1879
1872
1862
1846
1832
1817
1803
1792
1787
1783
1781
1782
1777
1777
1776
1776
1775
1776
1772
1772
1776
1776
1780
1787
1792
1802
1808
1814
1830
1840
1847
1847
1843
1840
1844
1845
1856
1865
1871
1872
1874
1877
1886
1883
1879
1872
1859
1843
1831
1819
1808
1805
1804
1808
1815
1824
1835
1840
1841
1853
1856
1856
1856
1858
1863
1869
1872
1883
1893
1902
1905
1908
1904
1891
1876
1867
1858
1850
1838
1833
1830
1838
1845
1859
1869
1877
1888
1891
1898
1901
1905
1907
1907
1903
1893
1888
1874
1872
1872
1873
1878
1885
1898
1906
1915
1927
1939
1951
1968
1978
1982
1983
1984
1983
1979
1979
1977
1974
1971
1971
1968
1962
1948
1939
1935
1930
1930
1937
1951
1967
1979
1983
1997
1998
1993
1993
1997
2000
2000
1998
1991
1991
1987
1986
1983
1989
1994
1994
1989
1986
1976
1968
1962
1958
1958
1967
1970
1979
1991
1999
2003
2005
2003
2001
1998
1990
1986
1984
1984
1983
1982
1980
1979
1983
1985
1985
1991
1997
2000
1999
2000
2001
2006
2015
2021
2032
2039
2047
2055
2054
2047
2039
2033
2027
2019
2006
1997
1984
1975
1969
1965
1958
1946
1935
1921
1907
1901
1893
1891
1894
1903
1914
1923
1938
1949
1951
1963
1966
1965
1965
1967
1980
1993
2009
2019
2027
2029
2029
2021
2013
2004
1994
1981
1968
1965
1962
1963
1967
1970
1974
1981
1983
1988
1994
1991
1997
1997
1999
2003
2011
2016
2015
2014
2013
2015
2013
2005
2002
2003
2010
2018
2023
2026
2031
2034
2039
2047
2047
2047
2046
2043
2039
2035
2032
2028
2025
2019
2003
1995
1983
1970
1963
1946
1932
1920
1919
1917
1923
1933
1943
1963
1978
1989
1999
2005
2007
2006
2002
1998
1984
1967
1946
1932
1918
1909
1902
1897
1889
1884
1879
1882
1883
1890
1898
1907
1913
1919
1923
1933
1937
1949
1957
1965
1962
1959
1956
1952
1951
1951
1949
1939
1934
1923
1923
1926
1930
1936
1936
1947
1951
1959
1967
1970
1974
1981
1984
1986
1990
1990
1987
1990
1995
2002
2014
2031
2038
2047
2047
2055
2057
2055
2047
2059
2043
2041
2043
2041
2047
2061
2065
2074
2074
2077
2074
2065
2054
2034
2027
2022
2021
2027
2031
2031
2029
2023
2019
2011
2000
1994
1982
1974
1962
1952
1945
1943
1941
1943
1959
1961
1965
1968
1967
1961
1957
1950
1947
1940
1936
1931
1926
1919
1906
1894
1879
1862
1844
1829
1817
1809
1808
1815
1823
1833
1841
1846
1850
1849
1847
1845
1840
1837
1834
1833
1839
1839
1841
1843
1843
1843
1840
1838
1819
1805
1794
1782
1776
1767
1773
1775
1774
1776
1776
1779
1787
1796
1802
1808
1808
1812
1821
1831
1840
1849
1855
1858
1855
1850
1840
1838
1831
1823
1813
1804
1792
1782
1776
1774
1777
1786
1803
1824
1853
1886
1925
1966
2000
2039
2090
2126
2163
2203
2256
2288
2337
2384
2433
2487
2543
2559
2623
2651
2673
2691
2706
2723
2736
2749
2759
2763
2763
2762
2750
2715
2673
2621
2535
2449
2359
2274
2192
2118
2045
1981
1925
1879
1842
1815
1795
1781
1766
1747
1735
1725
1721
1719
1721
1727
1731
1737
1745
1755
1766
1776
1776
1776
1775
1772
1770
1766
1763
1761
1761
1762
1767
1773
1774
1775
1778
1781
1792
1803
1815
1829
1841
1854
1865
1870
1872
1872
1871
1865
1856
1849
1841
1830
1817
1805
1790
1776
1771
1766
1769
1773
1775
1776
1779
1790
1798
1811
1825
1837
1840
1842
1849
1856
1861
1870
1872
1873
1875
1874
1872
1872
1869
1866
1860
1862
1861
1863
1863
1859
1857
1855
1852
1845
1839
1834
1823
1818
1813
1805
1792
1793
1788
1782
1781
1783
1792
1808
1836
1857
1883
1904
1919
1926
1933
1927
1920
1907
1890
1872
1853
1836
1818
1807
1803
1804
1805
1804
1806
1808
1808
1808
1805
1794
1795
1792
1798
1803
1803
1808
1813
1824
1840
1853
1861
1863
1870
1869
1867
1859
1862
1855
1853
1850
1851
1853
1856
1857
1859
1856
1855
1845
1840
1834
1823
1818
1819
1822
1829
1837
1843
1855
1861
1869
1872
1873
1873
1873
1879
1888
1891
1903
1905
1905
1904
1903
1899
1893
1887
1879
1878
1874
1875
1883
1886
1888
1887
1888
1888
1897
1904
1919
1922
1927
1933
1936
1954
1971
1990
2003
2015
2029
2037
2045
2061
2065
2074
2079
2086
2089
2091
2093
2090
2084
2083
2070
2082
2090
2091
2097
2098
2099
2099
2099
2099
2095
2086
2083
2078
2079
2086
2094
2102
2111
2127
2139
2149
2159
2167
2174
2181
2194
2192
2192
2193
2192
2189
2176
2165
2158
2149
2143
2142
2139
2143
2147
2160
2175
2183
2186
2191
2186
2175
2163
2153
2143
2131
2127
2124
2117
2112
2109
2107
2102
2096
2095
2096
2094
2095
2087
2081
2075
2064
2063
2061
2062
2063
2064
2058
2043
2036
2018
2000
1980
1953
1934
1914
1904
1903
1904
1905
1909
1922
1927
1931
1927
1915
1897
1879
1862
1843
1822
1807
1794
1787
1781
1784
1786
1791
1801
1808
1810
1813
1814
1815
1819
1822
1820
1821
1812
1809
1802
1791
1776
1758
1734
1712
1685
1665
1646
1636
1637
1644
1658
1682
1712
1739
1758
1776
1792
1806
1809
1813
1812
1815
1802
1791
1779
1774
1760
1749
1744
1743
1741
1735
1729
1726
1715
1712
1711
1712
1712
1714
1717
1726
1728
1730
1730
1735
1739
1744
1753
1763
1774
1781
1792
1801
1808
1808
1809
1807
1804
1797
1792
1789
1786
1782
1776
1776
1776
1773
1770
1765
1762
1747
1735
1718
1705
1693
1680
1674
1665
1653
1647
1642
1641
1647
1657
1680
1705
1736
1771
1799
1825
1845
1870
1876
1877
1873
1861
1841
1823
1807
1791
1777
1763
1770
1764
1760
1765
1776
1781
1792
1801
1808
1812
1814
1818
1819
1823
1827
1831
1837
1837
1833
1822
1808
1798
1786
1776
1761
1747
1744
1738
1737
1732
1730
1730
1731
1735
1743
1749
1759
1762
1767
1773
1770
1767
1770
1766
1763
1757
1744
1738
1735
1734
1739
1742
1742
1744
1749
1757
1761
1765
1770
1765
1766
1770
1776
1789
1802
1819
1838
1854
1871
1878
1889
1893
1890
1878
1872
1866
1844
1827
1808
1792
1779
1775
1776
1783
1799
1814
1839
1855
1872
1871
1882
1879
1877
1872
1865
1856
1850
1840
1830
1826
1822
1823
1824
1826
1824
1822
1823
1824
1825
1830
1829
1840
1843
1845
1845
1846
1855
1860
1869
1875
1879
1895
1904
1915
1921
1930
1936
1935
1935
1936
1946
1954
1967
1975
1984
1987
1986
1983
1971
1966
1951
1939
1925
1916
1905
1897
1887
1886
1888
1895
1903
1910
1922
1936
1958
1975
1991
2000
2007
2010
2003
2000
1991
1987
1973
1968
1959
1963
1954
1961
1968
1975
1984
1989
1987
1984
1977
1968
1965
1957
1959
1963
1967
1967
1967
1967
1962
1957
1953
1953
1950
1949
1945
1942
1943
1946
1954
1956
1959
1966
1974
1983
1988
1997
2000
2001
2000
1999
1996
1995
1997
1997
1999
1995
1995
1996
1999
2003
2015
2021
2031
2032
2032
2027
2019
2007
2000
2000
1995
1997
1999
1999
1999
2000
2000
2003
2005
2005
2007
2016
2029
2032
2032
2032
2027
2022
2018
2006
2000
1991
1983
1979
1978
1973
1970
1968
1979
1983
1987
1994
1999
2002
2001
2001
2000
2000
1998
1994
1996
1998
1999
2001
2000
1993
1979
1959
1941
1926
1914
1904
1905
1909
1917
1928
1936
1947
1961
1967
1968
1966
1953
1935
1936
1930
1924
1922
1926
1925
1927
1925
1926
1921
1922
1926
1935
1945
1962
1981
1990
2000
2011
2015
2022
2017
2018
2027
2026
2026
2023
2019
2015
2008
2003
1998
1989
1987
1983
1981
1979
1963
1967
1962
1967
1968
1978
1988
1991
1999
1995
2007
2017
2030
2039
2043
2044
2041
2033
2020
2021
2018
2011
2007
2004
2006
2001
2000
1993
1987
1981
1978
1983
1985
1986
1989
1991
1991
1989
1983
1975
1973
1973
1981
1987
1995
2000
2000
2000
2000
2001
2004
2007
2005
2007
2003
2001
2001
2000
2000
2000
2007
2015
2026
2029
2033
2039
2038
2042
2032
2030
2025
2015
2007
2002
2003
2005
2009
2011
2014
2011
2015
2017
2015
2013
2011
2004
2000
2000
1991
1991
1999
2004
2013
2026
2032
2038
2046
2047
2066
2078
2093
2103
2114
2126
2131
2134
2131
2127
2117
2099
2087
2081
2076
2075
2078
2086
2103
2122
2147
2169
2191
2222
2234
2243
2253
2249
2241
2229
2214
2197
2179
2163
2149
2134
2127
2118
2115
2113
2112
2113
2113
2124
2131
2141
2145
2147
2144
2138
2125
2109
2097
2082
2065
2059
2045
2032
2026
2015
2006
2000
1999
1995
1986
1981
1979
1984
1985
1983
1980
1974
1971
1978
1979
1984
1986
1987
1983
1978
1971
1968
1961
1961
1956
1952
1949
1937
1925
1906
1903
1893
1888
1887
1883
1885
1884
1887
1894
1901
1909
1920
1933
1943
1937
1939
1935
1933
1929
1919
1916
1914
1912
1915
1919
1920
1926
1925
1921
1914
1905
1890
1872
1857
1845
1837
1829
1827
1830
1830
1833
1837
1839
1842
1856
1870
1887
1911
1939
1967
1990
2027
2063
2094
2118
2146
2173
2202
2224
2255
2288
2325
2369
2419
2470
2526
2559
2627
2675
2710
2743
2763
2775
2779
2779
2775
2766
2751
2731
2699
2660
2608
2547
2491
2427
2363
2298
2239
2183
2135
2089
2035
1983
1950
1913
1881
1853
1826
1797
1770
1744
1718
1695
1677
1655
1649
1651
1658
1669
1680
1690
1698
1708
1714
1725
1735
1744
1754
1765
1774
1775
1776
1779
1786
1788
1792
1798
1800
1806
1806
1808
1807
1800
1797
1787
1776
1770
1763
1759
1750
1746
1741
1745
1749
1757
1759
1765
1771
1774
1775
1776
1774
1767
1766
1773
1776
1789
1796
1805
1808
1810
1810
1811
1808
1806
1803
1802
1799
1798
1795
1792
1792
1794
1796
1802
1806
1808
1816
1823
1826
1823
1821
1823
1829
1835
1843
1854
1857
1870
1859
1851
1842
1835
1823
1808
1793
1781
1779
1785
1799
1815
1837
1847
1861
1872
1886
1900
1911
1920
1927
1933
1936
1936
1933
1923
1917
1908
1903
1894
1891
1894
1903
1914
1925
1936
1950
1968
1983
2000
2011
2026
2031
2032
2032
2034
2019
2011
1998
1982
1968
1955
1948
1940
1942
1949
1960
1967
1978
1983
1986
1994
2000
2007
2020
2027
2033
2043
2047
2057
2055
2057
2047
2045
2043
2037
2031
2026
2020
2023
2032
2047
2064
2075
2094
2107
2125
2140
2160
2171
2171
2167
2161
2149
2142
2128
2119
2106
2098
2096
2097
2099
2102
2103
2109
2117
2128
2143
2158
2175
2191
2205
2212
2226
2231
2235
2241
2239
2239
2243
2253
2262
2274
2291
2303
2320
2338
2352
2363
2370
2375
2371
2362
2351
2335
2320
2309
2303
2301
2309
2319
2322
2331
2343
2354
2365
2374
2383
2397
2403
2413
2416
2411
2399
2390
2379
2368
2363
2355
2359
2372
2389
2416
2448
2477
2495
2507
2518
2527
2527
2535
2531
2521
2511
2499
2483
2471
2459
2447
2438
2427
2415
2391
2374
2352
2329
2303
2287
2270
2255
2242
2229
2215
2197
2187
2176
2165
2157
2143
2128
2117
2112
2106
2101
2096
2094
2089
2083
2076
2064
2039
2026
2017
2010
2002
2003
1999
2000
1994
1994
1983
1973
1968
1955
1949
1938
1936
1934
1922
1919
1913
1915
1907
1903
1890
1885
1871
1859
1857
1851
1846
1846
1847
1851
1857
1868
1872
1877
1883
1872
1868
1855
1847
1840
1839
1833
1834
1837
1840
1845
1855
1869
1877
1885
1886
1884
1874
1872
1865
1859
1856
1850
1847
1846
1851
1851
1850
1842
1840
1839
1839
1840
1842
1853
1856
1859
1863
1863
1859
1859
1859
1853
1842
1840
1840
1840
1844
1847
1855
1857
1859
1857
1848
1841
1835
1823
1814
1814
1809
1811
1814
1824
1839
1853
1868
1879
1891
1894
1899
1904
1906
1904
1903
1898
1890
1884
1872
1869
1868
1869
1872
1874
1881
1886
1890
1891
1887
1882
1872
1867
1862
1866
1865
1866
1869
1866
1862
1857
1849
1843
1839
1830
1831
1831
1835
1835
1834
1829
1831
1835
1837
1831
1831
1819
1809
1810
1812
1822
1834
1846
1857
1872
1887
1902
1911
1914
1915
1910
1904
1889
1878
1863
1851
1842
1840
1827
1826
1823
1832
1840
1853
1863
1871
1879
1882
1881
1881
1872
1868
1863
1868
1872
1873
1875
1888
1899
1914
1923
1935
1943
1948
1943
1939
1934
1921
1914
1907
1904
1903
1904
1903
1904
1906
1913
1919
1936
1936
1938
1939
1938
1931
1924
1917
1916
1920
1923
1927
1927
1925
1920
1913
1898
1898
1895
1900
1904
1917
1933
1947
1958
1968
1972
1975
1978
1975
1972
1965
1955
1940
1921
1903
1885
1868
1859
1850
1847
1849
1855
1869
1888
1907
1936
1968
1999
2029
2062
2079
2090
2091
2081
2068
2047
2031
2013
2000
1986
1975
1974
1970
1975
1982
1982
1986
1991
2000
2002
2010
2011
2011
2011
2007
2005
2001
2000
1997
1997
1995
1991
1991
1983
1979
1970
1968
1963
1961
1943
1951
1957
1963
1968
1977
1990
2000
2015
2026
2032
2034
2047
2047
2061
2063
2064
2065
2064
2062
2057
2062
2062
2055
2043
2032
2025
2013
2007
2003
2001
2003
2009
2021
2035
2059
2074
2091
2101
2111
2113
2117
2115
2111
2101
2095
2080
2074
2064
2063
2063
2064
2064
2065
2069
2077
2075
2073
2067
2061
2047
2037
2031
2017
2005
2000
1999
1998
2000
2001
2003
2010
2019
2030
2037
2057
2064
2064
2065
2063
2064
2063
2058
2047
2042
2032
2025
2019
2014
2009
2009
2015
2010
2011
2015
2023
2035
2064
2080
2098
2119
2130
2143
2149
2157
2157
2151
2141
2129
2117
2110
2103
2110
2112
2119
2128
2135
2135
2135
2134
2137
2139
2138
2132
2127
2115
2101
2089
2079
2069
2063
2047
2045
2047
2063
2078
2090
2097
2106
2112
2117
2122
2119
2115
2110
2096
2086
2069
2063
2039
2025
2014
2012
2014
2021
2033
2047
2064
2077
2083
2083
2091
2087
2096
2096
2097
2099
2101
2096
2095
2089
2083
2079
2077
2077
2074
2067
2066
2076
2087
2099
2113
2117
2139
2147
2160
2166
2182
2193
2206
2207
2207
2204
2199
2193
2188
2175
2170
2164
2160
2163
2166
2173
2180
2191
2198
2209
2209
2215
2221
2226
2231
2233
2234
2229
2226
2221
2213
2203
2194
2195
2195
2192
2191
2192
2204
2213
2223
2235
2237
2231
2224
2215
2203
2192
2189
2182
2190
2191
2197
2209
2218
2226
2237
2251
2263
2276
2287
2302
2314
2320
2331
2347
2354
2355
2351
2342
2326
2310
2293
2271
2253
2239
2225
2218
2211
2205
2201
2203
2209
2219
2224
2227
2233
2235
2231
2227
2224
2222
2213
2205
2198
2197
2192
2187
2179
2175
2162
2151
2141
2128
2122
2113
2109
2101
2102
2098
2096
2090
2079
2067
2061
2044
2039
2033
2034
2023
2017
2005
1995
1985
1982
1979
1979
1974
1970
1968
1968
1966
1963
1967
1969
1971
1969
1968
1967
1959
1951
1945
1938
1937
1937
1943
1950
1964
1971
1986
2001
2013
2016
2019
2007
2000
1995
1984
1977
1967
1953
1939
1936
1923
1923
1926
1930
1936
1950
1968
1984
2006
2033
2071
2107
2145
2178
2217
2251
2287
2320
2352
2383
2413
2448
2481
2523
2559
2615
2659
2703
2739
2771
2807
2833
2859
2879
2895
2911
2917
2917
2895
2854
2791
2719
2630
2531
2435
2337
2247
2163
2081
2009
1953
1909
1872
1840
1818
1804
1791
1781
1783
1783
1786
1788
1791
1789
1787
1782
1777
1776
1781
1793
1807
1808
1810
1805
1789
1770
1754
1735
1727
1725
1724
1728
1738
1745
1750
1757
1755
1755
1750
1744
1742
1735
1731
1731
1728
1725
1726
1730
1738
1750
1759
1771
1776
1776
1771
1762
1751
1741
1728
1727
1728
1743
1754
1771
1781
1792
1793
1793
1791
1781
1776
1772
1762
1758
1750
1744
1744
1744
1751
1762
1780
1795
1805
1811
1819
1821
1819
1820
1819
1819
1815
1811
1808
1802
1791
1785
1788
1789
1791
1794
1793
1791
1783
1765
1753
1740
1731
1729
1735
1742
1755
1769
1779
1800
1813
1824
1829
1828
1824
1821
1818
1817
1820
1818
1820
1813
1823
1822
1811
1808
1802
1793
1794
1787
1786
1787
1790
1802
1815
1837
1851
1865
1877
1881
1877
1872
1872
1872
1873
1879
1886
1886
1887
1887
1885
1882
1872
1861
1853
1847
1850
1859
1870
1885
1901
1910
1917
1917
1918
1920
1922
1924
1925
1923
1929
1927
1923
1919
1916
1915
1914
1916
1920
1935
1936
1943
1958
1968
1979
1985
1999
2003
2005
2011
2022
2017
2018
2015
2015
2010
2007
2003
2005
2010
2022
2032
2039
2047
2059
2070
2089
2099
2112
2119
2127
2122
2119
2114
2113
2113
2117
2123
2128
2139
2147
2160
2173
2182
2191
2191
2193
2197
2199
2202
2199
2196
2183
2175
2160
2147
2135
2128
2127
2127
2129
2143
2150
2170
2183
2189
2192
2190
2189
2186
2181
2177
2171
2164
2160
2155
2153
2156
2159
2167
2179
2192
2202
2213
2219
2215
2207
2192
2173
2149
2127
2096
2070
2038
2015
2000
1993
1987
1986
1990
1989
1986
1983
1973
1967
1957
1946
1936
1924
1914
1906
1895
1878
1862
1840
1823
1808
1794
1783
1776
1776
1778
1785
1788
1789
1779
1767
1744
1712
1685
1664
1639
1616
1597
1581
1564
1552
1535
1535
1524
1520
1520
1530
1535
1556
1575
1582
1589
1593
1599
1597
1589
1584
1575
1563
1555
1552
1553
1553
1556
1557
1555
1554
1535
1535
1534
1526
1531
1516
1505
1493
1488
1488
1488
1488
1490
1488
1489
1491
1492
1500
1499
1511
1519
1530
1535
1558
1565
1575
1584
1586
1587
1584
1575
1559
1535
1522
1508
1495
1488
1488
1494
1505
1521
1535
1562
1583
1600
1619
1644
1664
1669
1669
1661
1646
1632
1619
1606
1597
1589
1584
1586
1598
1600
1605
1613
1620
1633
1645
1653
1667
1678
1686
1687
1688
1684
1681
1678
1675
1669
1664
1666
1674
1683
1705
1717
1735
1743
1745
1742
1733
1719
1708
1696
1686
1678
1673
1664
1657
1653
1652
1659
1664
1680
1693
1705
1731
1750
1770
1782
1794
1795
1792
1782
1775
1765
1754
1738
1724
1712
1702
1696
1700
1710
1723
1744
1759
1777
1787
1792
1799
1797
1795
1795
1790
1789
1783
1778
1783
1783
1785
1783
1776
1766
1761
1750
1744
1744
1744
1744
1744
1745
1745
1749
1751
1757
1763
1774
1781
1791
1787
1791
1786
1776
1770
1764
1759
1762
1764
1769
1771
1767
1767
1765
1773
1774
1774
1773
1773
1773
1776
1778
1785
1797
1805
1814
1823
1826
1840
1842
1853
1857
1862
1865
1869
1866
1861
1857
1856
1847
1850
1846
1843
1843
1847
1846
1845
1840
1835
1827
1819
1808
1808
1806
1811
1821
1833
1841
1859
1872
1887
1899
1903
1902
1903
1898
1888
1875
1871
1861
1856
1858
1856
1856
1850
1843
1839
1828
1822
1821
1817
1819
1825
1828
1835
1842
1854
1865
1872
1880
1882
1877
1869
1859
1851
1842
1836
1830
1830
1834
1837
1840
1840
1841
1839
1837
1830
1826
1822
1817
1821
1828
1837
1841
1845
1847
1853
1853
1853
1855
1855
1852
1845
1842
1840
1841
1841
1846
1850
1858
1867
1872
1877
1878
1877
1882
1883
1881
1882
1875
1867
1862
1853
1851
1856
1855
1853
1861
1867
1868
1863
1869
1866
1861
1851
1843
1837
1824
1811
1801
1794
1797
1807
1817
1830
1840
1860
1882
1901
1915
1919
1925
1919
1913
1904
1885
1870
1856
1849
1842
1840
1841
1840
1841
1840
1843
1849
1847
1851
1855
1856
1856
1856
1860
1862
1869
1872
1875
1883
1879
1879
1878
1872
1867
1861
1854
1850
1843
1840
1838
1840
1847
1855
1868
1876
1893
1904
1909
1907
1909
1907
1904
1900
1886
1878
1867
1853
1841
1838
1840
1847
1865
1875
1886
1904
1920
1925
1930
1930
1927
1925
1922
1921
1923
1927
1931
1934
1929
1924
1922
1922
1930
1929
1929
1932
1936
1936
1936
1936
1935
1937
1936
1935
1931
1932
1929
1930
1936
1938
1942
1946
1942
1936
1925
1914
1897
1879
1866
1858
1856
1856
1870
1886
1905
1925
1943
1959
1968
1968
1967
1964
1951
1942
1936
1934
1927
1927
1930
1926
1923
1919
1924
1925
1935
1943
1954
1962
1965
1968
1971
1977
1977
1973
1968
1952
1939
1928
1916
1907
1903
1903
1901
1903
1906
1909
1909
1915
1915
1923
1936
1948
1965
1973
1984
1991
2001
2009
2019
2011
2010
2000
2000
2001
2004
2012
2015
2018
2017
2021
2023
2015
2023
2023
2025
2015
2014
2013
2014
2015
2015
2023
2031
2043
2057
2066
2079
2090
2096
2105
2110
2106
2096
2086
2069
2047
2032
2016
2004
1991
1979
1968
1953
1940
1934
1927
1923
1923
1930
1936
1947
1958
1969
1979
1985
1983
1998
1999
1999
1994
1990
1985
1978
1965
1949
1931
1915
1900
1879
1866
1852
1841
1838
1831
1827
1819
1808
1798
1793
1790
1794
1799
1807
1813
1820
1819
1818
1811
1808
1807
1802
1803
1798
1796
1792
1791
1792
1792
1793
1783
1779
1778
1781
1782
1789
1797
1809
1830
1842
1858
1867
1872
1881
1884
1886
1881
1877
1874
1872
1862
1849
1837
1815
1797
1776
1764
1761
1770
1783
1808
1838
1873
1914
1958
2001
2045
2096
2143
2191
2238
2286
2327
2373
2414
2455
2495
2531
2559
2593
2615
2637
2654
2672
2687
2704
2723
2739
2753
2767
2775
2770
2751
2711
2667
2608
2535
2455
2371
2293
2209
2149
2080
2015
1968
1923
1886
1856
1836
1815
1802
1791
1785
1777
1777
1779
1785
1789
1782
1782
1782
1786
1794
1803
1809
1818
1822
1827
1840
1850
1857
1875
1881
1882
1891
1901
1904
1905
1899
1890
1879
1876
1882
1890
1900
1909
1919
1923
1923
1918
1913
1907
1904
1902
1889
1878
1872
1862
1855
1846
1840
1830
1825
1825
1823
1831
1840
1849
1861
1871
1882
1902
1909
1925
1923
1925
1924
1921
1919
1919
1919
1915
1911
1904
1899
1887
1875
1867
1853
1847
1841
1840
1846
1849
1856
1856
1870
1871
1875
1875
1877
1889
1904
1920
1936
1950
1965
1969
1975
1977
1974
1967
1958
1949
1944
1939
1936
1926
1920
1913
1913
1922
1926
1936
1946
1951
1957
1962
1968
1973
1975
1978
1975
1973
1963
1958
1953
1948
1946
1949
1958
1968
1968
1964
1942
1936
1925
1920
1919
1918
1920
1925
1926
1922
1921
1919
1920
1925
1936
1953
1967
1971
1971
1971
1966
1958
1955
1952
1949
1951
1949
1951
1953
1959
1967
1968
1971
1979
1985
1994
1999
2000
2002
2003
2005
2002
2003
2001
2005
2000
1996
1994
1989
1987
1990
1993
1999
2000
2001
2002
2003
2000
1991
1987
1985
1991
2001
2022
2039
2064
2080
2095
2102
2111
2112
2107
2102
2096
2096
2096
2095
2090
2091
2086
2085
2085
2081
2083
2087
2097
2118
2138
2153
2160
2162
2167
2165
2165
2160
2154
2147
2142
2145
2147
2153
2160
2171
2183
2193
2211
2224
2234
2241
2253
2256
2258
2263
2263
2263
2267
2271
2279
2284
2286
2287
2279
2273
2263
2258
2255
2253
2251
2251
2245
2242
2242
2245
2251
2256
2256
2256
2256
2239
2224
2213
2193
2178
2160
2147
2131
2109
2081
2059
2030
2002
1984
1965
1948
1936
1923
1916
1912
1911
1911
1905
1898
1887
1874
1863
1850
1838
1822
1814
1810
1809
1808
1808
1813
1821
1825
1818
1803
1787
1763
1744
1719
1705
1688
1676
1663
1653
1649
1648
1648
1664
1675
1690
1710
1722
1735
1745
1753
1759
1758
1747
1730
1701
1675
1647
1616
1599
1584
1567
1567
1565
1569
1577
1581
1584
1581
1581
1587
1599
1616
1630
1645
1652
1663
1671
1680
1691
1706
1712
1714
1712
1707
1694
1680
1661
1645
1632
1619
1616
1614
1616
1613
1616
1618
1629
1637
1648
1653
1659
1662
1660
1658
1661
1662
1661
1655
1649
1649
1639
1632
1626
1620
1616
1615
1611
1615
1620
1633
1648
1661
1677
1696
1715
1735
1752
1762
1765
1773
1773
1774
1764
1748
1738
1715
1706
1690
1682
1681
1688
1695
1705
1713
1717
1719
1722
1719
1716
1712
1712
1712
1712
1712
1712
1710
1712
1712
1717
1722
1721
1717
1718
1720
1719
1721
1725
1731
1742
1744
1744
1744
1745
1748
1746
1748
1746
1738
1749
1747
1744
1740
1733
1725
1720
1717
1713
1711
1707
1702
1706
1712
1726
1733
1747
1758
1766
1770
1771
1767
1763
1759
1750
1745
1741
1744
1742
1744
1744
1745
1745
1748
1746
1747
1747
1753
1751
1751
1743
1744
1741
1737
1733
1727
1717
1712
1705
1697
1695
1701
1709
1713
1725
1733
1739
1733
1728
1725
1719
1715
1712
1710
1709
1710
1712
1707
1706
1701
1696
1681
1674
1664
1651
1654
1653
1664
1687
1718
1750
1781
1810
1831
1840
1841
1836
1834
1817
1808
1788
1770
1749
1728
1706
1680
1660
1643
1619
1614
1605
1605
1616
1621
1637
1650
1664
1678
1685
1693
1701
1712
1719
1727
1729
1726
1725
1716
1714
1718
1711
1706
1706
1699
1696
1691
1684
1683
1683
1682
1687
1697
1697
1713
1726
1737
1741
1744
1744
1746
1745
1744
1744
1734
1726
1712
1697
1682
1666
1648
1629
1617
1613
1616
1616
1627
1639
1659
1690
1721
1754
1778
1803
1814
1823
1821
1813
1808
1791
1782
1771
1754
1741
1723
1710
1697
1686
1680
1677
1680
1680
1686
1694
1707
1712
1717
1727
1721
1715
1712
1705
1690
1682
1676
1670
1671
1671
1678
1679
1681
1680
1687
1694
1703
1710
1714
1721
1725
1726
1724
1730
1718
1717
1715
1723
1719
1724
1713
1712
1717
1717
1724
1735
1738
1734
1728
1713
1701
1681
1666
1650
1642
1637
1635
1644
1646
1650
1664
1664
1669
1674
1675
1680
1677
1671
1666
1661
1660
1651
1650
1651
1650
1651
1649
1648
1644
1642
1648
1661
1671
1691
1724
1753
1781
1801
1811
1814
1814
1801
1785
1765
1744
1721
1705
1691
1680
1678
1680
1683
1698
1712
1726
1741
1758
1775
1791
1804
1812
1822
1824
1828
1837
1833
1834
1837
1833
1828
1821
1809
1801
1790
1783
1776
1770
1763
1765
1770
1776
1781
1786
1791
1793
1792
1791
1790
1792
1795
1803
1808
1806
1809
1808
1806
1797
1792
1793
1795
1793
1789
1788
1791
1792
1802
1808
1821
1825
1831
1830
1827
1826
1819
1813
1807
1807
1805
1808
1814
1825
1837
1843
1851
1855
1859
1861
1863
1863
1865
1867
1869
1872
1875
1881
1883
1882
1887
1887
1889
1891
1892
1887
1885
1886
1879
1878
1879
1878
1877
1882
1890
1901
1905
1915
1923
1930
1931
1936
1936
1946
1943
1939
1933
1924
1936
1936
1943
1952
1967
1984
2001
2026
2047
2063
2065
2065
2047
2039
2022
2004
1987
1968
1953
1944
1936
1942
1947
1953
1957
1963
1959
1955
1954
1948
1939
1936
1931
1921
1921
1925
1927
1934
1939
1942
1944
1942
1945
1939
1941
1937
1934
1933
1931
1933
1923
1921
1920
1923
1930
1933
1929
1923
1923
1918
1915
1907
1904
1907
1906
1907
1910
1904
1891
1878
1862
1844
1825
1803
1793
1789
1799
1809
1821
1837
1847
1867
1877
1890
1901
1903
1904
1897
1894
1883
1871
1857
1848
1838
1834
1829
1831
1839
1841
1857
1873
1887
1903
1915
1927
1933
1936
1939
1939
1943
1942
1941
1941
1935
1926
1913
1906
1903
1903
1907
1925
1950
1981
2015
2063
2103
2143
2186
2224
2266
2311
2359
2407
2451
2497
2543
2587
2623
2653
2685
2711
2731
2741
2751
2765
2773
2783
2795
2803
2815
2821
2815
2801
2771
2735
2687
2623
2551
2481
2402
2323
2241
2163
2095
2025
1970
1925
1890
1861
1842
1822
1808
1802
1794
1794
1799
1809
1821
1833
1844
1857
1871
1878
1885
1883
1883
1878
1873
1872
1869
1866
1856
1847
1841
1838
1835
1833
1829
1815
1810
1813
1811
1818
1823
1821
1815
1811
1808
1808
1808
1811
1808
1811
1811
1812
1809
1805
1799
1794
1781
1776
1767
1762
1763
1762
1767
1766
1767
1770
1774
1781
1791
1797
1806
1809
1822
1827
1825
1820
1815
1807
1808
1808
1806
1808
1810
1810
1808
1796
1779
1762
1744
1737
1739
1749
1769
1782
1802
1819
1835
1856
1880
1907
1931
1951
1962
1967
1970
1970
1968
1964
1955
1950
1938
1933
1922
1911
1909
1905
1911
1918
1927
1936
1939
1941
1946
1947
1942
1936
1930
1914
1903
1893
1883
1875
1876
1885
1895
1915
1928
1943
1964
1971
1978
1983
1981
1983
1983
1988
1993
1991
1984
1974
1966
1959
1950
1941
1936
1931
1923
1923
1918
1919
1922
1927
1936
1940
1949
1959
1975
1982
1998
2003
2017
2031
2039
2045
2047
2045
2038
2027
2015
2003
1993
1984
1977
1971
1973
1975
1987
1997
2001
2015
2027
2032
2044
2062
2064
2071
2077
2083
2087
2091
2096
2097
2106
2106
2112
2113
2115
2127
2129
2133
2145
2158
2173
2185
2195
2211
2223
2225
2234
2239
2239
2242
2243
2251
2258
2271
2289
2299
2306
2317
2320
2320
2320
2320
2314
2316
2317
2320
2323
2326
2327
2327
2327
2333
2337
2339
2337
2327
2321
2320
2319
2320
2329
2337
2343
2349
2352
2352
2351
2346
2342
2347
2347
2353
2363
2371
2379
2383
2388
2391
2398
2399
2398
2387
2381
2371
2357
2343
2317
2289
2260
2239
2224
2211
2207
2198
2199
2193
2195
2192
2191
2189
2185
2178
2177
2175
2178
2186
2181
2179
2170
2161
2151
2139
2125
2111
2095
2069
2047
2032
2015
2002
1988
1976
1967
1957
1951
1950
1946
1948
1938
1942
1939
1942
1941
1936
1934
1929
1920
1915
1910
1905
1902
1891
1878
1872
1867
1865
1870
1874
1887
1901
1913
1927
1936
1947
1956
1958
1958
1955
1959
1959
1963
1968
1967
1967
1968
1966
1957
1947
1934
1915
1902
1893
1887
1888
1894
1899
1903
1910
1915
1931
1938
1955
1971
1971
1975
1975
1980
1982
1983
1983
1981
1979
1974
1969
1966
1961
1955
1953
1950
1947
1951
1958
1968
1971
1991
2001
2004
2003
2000
1998
1990
1982
1971
1959
1949
1940
1936
1935
1934
1933
1934
1934
1936
1940
1951
1962
1968
1970
1973
1975
1979
1979
1977
1975
1968
1962
1952
1942
1937
1935
1933
1934
1936
1945
1951
1963
1966
1970
1970
1968
1959
1949
1941
1936
1938
1946
1961
1973
1989
2004
2022
2033
2042
2046
2059
2062
2058
2046
2033
2025
2019
2015
2019
2021
2031
2033
2039
2032
2032
2021
2013
2006
2003
2001
2002
2003
2010
2015
2019
2027
2032
2032
2032
2032
2031
2027
2018
2019
2015
2029
2033
2043
2055
2047
2055
2059
2064
2064
2061
2047
2039
2032
2022
2011
2003
2000
2003
2013
2023
2031
2035
2035
2035
2037
2034
2029
2031
2027
2029
2032
2037
2047
2064
2073
2076
2074
2070
2063
2057
2042
2037
2032
2032
2026
2015
2007
1999
1991
1983
1983
1982
1987
1991
1997
2001
2006
2014
2023
2023
2021
2031
2031
2031
2030
2022
2018
2011
2010
2011
2007
2004
1998
1990
1984
1978
1971
1970
1971
1977
1983
1988
1995
2001
2003
2011
2016
2019
2025
2023
2031
2037
2045
2047
2057
2062
2065
2069
2078
2083
2094
2096
2101
2109
2097
2089
2070
2046
2025
2003
1987
1977
1971
1973
1980
1991
2005
2031
2047
2065
2086
2091
2096
2099
2096
2091
2081
2067
2061
2043
2039
2023
2018
2016
2013
2007
2010
2011
2017
2026
2032
2033
2035
2038
2037
2032
2018
2013
2006
2000
1998
1995
1991
1987
1981
1969
1956
1943
1935
1924
1925
1925
1936
1945
1957
1968
1981
1984
1995
1998
2000
2001
2002
2000
2005
2009
2011
2013
2017
2017
2011
2005
2003
2003
2011
2007
2015
2028
2032
2039
2047
2037
2027
2013
2001
1990
1977
1968
1959
1953
1953
1953
1955
1965
1968
1968
1963
1956
1953
1952
1965
1974
1995
2011
2032
2042
2055
2064
2064
2067
2067
2064
2058
2039
2032
2011
1998
1978
1961
1939
1923
1917
1910
1917
1927
1936
1943
1954
1965
1968
1972
1979
1984
1990
1999
2001
1999
1991
1986
1981
1978
1970
1965
1961
1949
1939
1931
1927
1925
1929
1936
1945
1955
1964
1969
1974
1983
1987
1987
1984
1983
1982
1983
1983
1984
1983
1986
1989
1986
1988
1994
1993
1987
1981
1975
1975
1977
1980
1983
1981
1983
1980
1975
1979
1980
1984
1998
1999
2007
2015
2031
2032
2034
2038
2037
2037
2034
2022
2006
1987
1967
1939
1918
1895
1883
1872
1872
1877
1887
1902
1913
1933
1950
1963
1968
1974
1981
1987
1991
1990
1986
1973
1964
1953
1945
1940
1940
1938
1939
1942
1942
1947
1955
1965
1969
1975
1982
1984
1989
1993
1999
2007
2016
2027
2030
2026
2013
1999
1983
1967
1953
1941
1940
1947
1968
1987
2018
2055
2093
2119
2145
2163
2174
2175
2167
2158
2136
2117
2100
2083
2071
2065
2059
2057
2045
2047
2046
2038
2038
2038
2039
2039
2032
2023
2013
2002
1997
1994
1997
1999
2003
2006
2017
2021
2025
2019
2010
2000
1981
1968
1948
1936
1930
1927
1926
1927
1931
1930
1927
1925
1925
1926
1931
1935
1936
1935
1930
1920
1906
1890
1873
1862
1846
1831
1823
1809
1810
1808
1814
1823
1835
1854
1872
1891
1919
1921
1927
1932
1933
1927
1920
1913
1905
1890
1875
1872
1867
1860
1856
1856
1856
1866
1866
1869
1867
1857
1853
1853
1843
1837
1827
1825
1826
1833
1840
1847
1855
1863
1871
1875
1885
1895
1908
1924
1943
1964
1983
1999
2019
2042
2071
2102
2133
2173
2210
2253
2288
2325
2363
2415
2455
2498
2531
2590
2633
2672
2709
2737
2759
2775
2791
2803
2815
2832
2847
2847
2843
2815
2771
2705
2622
2525
2419
2322
2224
2133
2042
1968
1904
1854
1812
1781
1759
1746
1747
1749
1759
1773
1779
1791
1794
1794
1791
1777
1770
1758
1753
1747
1745
1744
1739
1733
1728
1726
1728
1727
1729
1728
1727
1730
1743
1749
1759
1759
1756
1754
1749
1744
1744
1744
1749
1750
1746
1745
1749
1750
1755
1761
1765
1776
1788
1793
1797
1795
1793
1787
1781
1776
1771
1764
1761
1757
1754
1759
1771
1778
1789
1803
1810
1821
1830
1835
1838
1839
1833
1838
1835
1838
1829
1818
1808
1793
1781
1781
1776
1776
1775
1776
1779
1788
1797
1807
1810
1823
1822
1825
1822
1823
1822
1819
1820
1821
1818
1819
1817
1810
1806
1795
1786
1777
1770
1776
1779
1790
1805
1818
1838
1845
1853
1854
1853
1855
1854
1853
1849
1845
1845
1846
1843
1840
1838
1836
1838
1831
1828
1825
1826
1825
1828
1830
1833
1834
1838
1839
1842
1849
1853
1855
1859
1864
1872
1883
1887
1891
1890
1889
1891
1897
1899
1905
1911
1920
1932
1939
1953
1959
1968
1969
1972
1974
1975
1974
1971
1969
1972
1971
1981
1988
1997
2000
2000
2000
1997
1991
1994
1996
1995
1997
1998
2000
2006
2007
2012
2011
2011
2014
2015
2015
2018
2014
2017
2019
2031
2035
2047
2064
2078
2094
2103
2112
2114
2114
2103
2098
2091
2088
2084
2079
2079
2075
2069
2070
2074
2081
2090
2101
2119
2138
2158
2181
2209
2231
2254
2266
2274
2277
2277
2271
2267
2263
2256
2250
2244
2238
2227
2223
2215
2212
2211
2214
2221
2230
2239
2255
2267
2279
2291
2307
2303
2305
2303
2301
2299
2299
2298
2302
2301
2303
2305
2303
2305
2298
2291
2279
2257
2240
2224
2205
2195
2187
2181
2179
2175
2173
2175
2172
2167
2164
2160
2151
2141
2128
2112
2099
2083
2067
2039
2032
2022
2013
2010
1999
1995
1985
1978
1968
1961
1946
1930
1911
1885
1867
1850
1840
1839
1842
1846
1850
1849
1851
1856
1859
1869
1873
1875
1875
1877
1876
1877
1879
1887
1882
1879
1877
1875
1880
1882
1884
1886
1885
1886
1883
1884
1881
1875
1873
1875
1874
1883
1891
1899
1901
1904
1905
1915
1919
1923
1926
1926
1922
1922
1918
1906
1903
1894
1889
1894
1902
1909
1922
1941
1954
1961
1958
1954
1949
1941
1936
1930
1925
1919
1914
1908
1904
1905
1904
1899
1893
1884
1877
1872
1863
1867
1872
1872
1882
1885
1886
1887
1886
1882
1878
1873
1872
1862
1861
1861
1862
1866
1869
1878
1887
1899
1903
1903
1902
1899
1888
1881
1872
1870
1861
1857
1847
1849
1841
1836
1825
1818
1814
1815
1821
1828
1838
1845
1856
1861
1871
1871
1883
1889
1895
1904
1911
1917
1921
1925
1923
1918
1904
1887
1866
1845
1829
1813
1807
1804
1804
1808
1815
1824
1828
1840
1840
1853
1856
1872
1887
1901
1911
1919
1924
1922
1917
1905
1898
1885
1873
1859
1851
1842
1838
1833
1839
1839
1840
1841
1841
1843
1842
1841
1840
1840
1840
1838
1839
1835
1834
1827
1827
1815
1808
1795
1783
1779
1773
1770
1765
1766
1767
1775
1777
1783
1792
1794
1802
1803
1805
1805
1798
1792
1790
1778
1769
1756
1744
1738
1733
1732
1735
1744
1750
1758
1762
1765
1771
1776
1781
1785
1792
1797
1804
1808
1811
1811
1813
1808
1798
1787
1776
1769
1761
1766
1774
1781
1792
1799
1803
1806
1807
1804
1798
1790
1777
1771
1755
1742
1725
1714
1709
1703
1707
1712
1716
1728
1742
1750
1761
1770
1776
1780
1783
1787
1792
1804
1808
1823
1840
1856
1871
1883
1894
1897
1896
1893
1892
1886
1881
1873
1871
1867
1858
1856
1851
1849
1841
1840
1839
1839
1840
1849
1855
1858
1858
1855
1856
1850
1842
1839
1831
1822
1824
1825
1827
1835
1842
1851
1859
1872
1877
1889
1897
1901
1893
1885
1876
1872
1863
1856
1847
1843
1847
1841
1845
1843
1840
1833
1827
1821
1813
1808
1807
1801
1801
1802
1803
1808
1817
1821
1828
1830
1837
1840
1838
1835
1831
1826
1821
1812
1808
1803
1801
1799
1794
1791
1786
1783
1782
1790
1795
1808
1824
1837
1854
1866
1878
1884
1889
1899
1902
1904
1904
1899
1887
1883
1877
1869
1862
1850
1845
1830
1831
1824
1824
1826
1826
1834
1840
1849
1855
1860
1866
1867
1863
1856
1847
1842
1839
1835
1829
1818
1815
1826
1831
1840
1843
1851
1861
1872
1881
1890
1899
1904
1904
1904
1905
1907
1911
1915
1919
1923
1920
1920
1920
1923
1925
1930
1934
1929
1923
1915
1911
1904
1904
1901
1897
1895
1889
1888
1878
1871
1857
1843
1831
1815
1805
1793
1785
1782
1788
1798
1809
1827
1845
1862
1887
1905
1919
1936
1943
1950
1951
1943
1939
1933
1923
1914
1904
1892
1879
1871
1847
1849
1843
1840
1840
1840
1847
1849
1855
1863
1874
1895
1910
1919
1935
1936
1936
1929
1921
1909
1902
1893
1885
1873
1873
1875
1881
1888
1890
1891
1898
1905
1906
1910
1910
1905
1904
1894
1887
1897
1891
1891
1890
1891
1891
1893
1904
1911
1926
1936
1943
1951
1962
1967
1968
1963
1954
1941
1935
1927
1932
1936
1940
1954
1970
1991
2017
2040
2063
2076
2091
2099
2103
2101
2100
2100
2100
2098
2097
2099
2109
2112
2123
2127
2127
2127
2127
2118
2112
2110
2109
2107
2107
2112
2113
2119
2128
2131
2139
2149
2155
2160
2167
2175
2177
2177
2173
2167
2160
2159
2147
2135
2128
2118
2105
2096
2094
2085
2080
2075
2065
2057
2040
2032
2026
2015
2003
1989
1977
1956
1936
1911
1895
1881
1871
1869
1871
1881
1891
1908
1914
1919
1927
1927
1923
1919
1904
1893
1882
1872
1861
1856
1841
1835
1824
1813
1808
1799
1791
1781
1775
1771
1766
1759
1748
1741
1735
1731
1739
1743
1744
1744
1749
1749
1754
1754
1751
1746
1751
1753
1749
1746
1744
1745
1744
1744
1749
1756
1762
1770
1778
1787
1792
1797
1805
1803
1799
1794
1788
1780
1774
1765
1759
1752
1751
1755
1763
1776
1802
1828
1855
1889
1923
1962
2000
2033
2069
2099
2128
2155
2183
2217
2254
2291
2331
2379
2431
2477
2512
2545
2559
2599
2615
2637
2658
2677
2703
2718
2731
2737
2733
2717
2687
2655
2609
2551
2495
2427
2361
2295
2235
2170
2106
2037
1982
1935
1889
1855
1822
1802
1786
1776
1765
1759
1757
1750
1749
1750
1755
1759
1767
1774
1778
1785
1786
1786
1788
1789
1791
1792
1793
1793
1792
1790
1783
1786
1794
1807
1821
1840
1866
1879
1903
1909
1913
1907
1903
1888
1878
1872
1864
1860
1855
1842
1834
1825
1819
1819
1819
1827
1829
1839
1840
1842
1843
1843
1843
1843
1847
1855
1860
1867
1872
1872
1871
1870
1872
1870
1863
1862
1861
1856
1853
1849
1853
1856
1866
1871
1866
1867
1871
1856
1857
1860
1865
1872
1875
1879
1887
1897
1899
1899
1892
1886
1879
1885
1891
1904
1918
1931
1938
1943
1947
1941
1933
1925
1917
1905
1904
1898
1893
1888
1883
1890
1887
1902
1911
1920
1935
1942
1950
1953
1958
1957
1954
1955
1954
1954
1958
1959
1961
1966
1967
1965
1965
1958
1955
1954
1951
1953
1959
1967
1970
1979
1985
1989
1989
1990
1990
1991
1987
1987
1990
1991
1995
1995
1995
2000
2003
2015
2023
2035
2043
2059
2064
2073
2077
2077
2075
2071
2071
2073
2071
2071
2066
2065
2063
2047
2043
2036
2036
2039
2047
2062
2066
2074
2077
2077
2078
2075
2069
2064
2063
2063
2063
2064
2071
2079
2087
2096
2107
2123
2139
2160
2177
2192
2209
2222
2227
2231
2229
2224
2223
2223
2212
2209
2204
2203
2204
2209
2217
2224
2235
2242
2251
2256
2267
2283
2288
2291
2295
2301
2303
2313
2314
2317
2320
2327
2333
2335
2335
2327
2324
2318
2311
2310
2318
2320
2337
2353
2373
2393
2416
2433
2449
2462
2465
2461
2454
2439
2429
2415
2399
2385
2375
2367
2357
2350
2335
2324
2307
2303
2293
2282
2270
2256
2241
2224
2218
2203
2192
2175
2160
2141
2123
2111
2101
2094
2082
2073
2065
2058
2039
2032
2021
2011
2015
2011
2005
2003
2000
1998
1993
1989
1983
1981
1975
1969
1965
1959
1953
1951
1949
1936
1931
1923
1918
1909
1905
1904
1903
1899
1890
1887
1878
1877
1873
1872
1874
1879
1881
1887
1887
1890
1889
1894
1901
1904
1907
1910
1909
1905
1901
1894
1887
1883
1884
1887
1899
1906
1920
1924
1931
1935
1937
1942
1941
1936
1934
1927
1919
1907
1898
1885
1875
1872
1870
1871
1872
1870
1874
1878
1878
1876
1873
1870
1859
1856
1856
1859
1863
1868
1875
1883
1891
1898
1901
1904
1904
1901
1895
1882
1872
1869
1865
1870
1882
1904
1922
1938
1956
1958
1955
1952
1941
1927
1911
1893
1874
1872
1859
1865
1870
1873
1878
1887
1902
1914
1927
1940
1950
1953
1946
1949
1936
1921
1914
1900
1886
1872
1870
1865
1872
1899
1917
1947
1975
2000
2015
2029
2033
2032
2021
2009
2000
1991
1986
1981
1974
1968
1967
1963
1958
1951
1941
1936
1937
1937
1939
1939
1946
1946
1945
1939
1936
1931
1923
1919
1917
1920
1925
1929
1927
1925
1929
1931
1932
1931
1927
1920
1919
1922
1930
1937
1947
1966
1976
1983
1987
1987
1984
1975
1967
1953
1941
1933
1926
1915
1904
1900
1887
1881
1877
1876
1878
1889
1897
1905
1914
1915
1914
1904
1899
1901
1898
1904
1902
1902
1897
1889
1883
1879
1871
1862
1857
1851
1840
1841
1837
1831
1809
1810
1803
1796
1792
1792
1793
1796
1803
1808
1808
1808
1820
1810
1815
1813
1824
1819
1825
1827
1831
1847
1855
1871
1881
1890
1902
1903
1901
1897
1893
1892
1886
1871
1874
1874
1877
1877
1878
1882
1895
1893
1885
1887
1889
1886
1885
1878
1883
1883
1882
1879
1871
1867
1857
1853
1851
1853
1856
1859
1863
1872
1882
1885
1887
1889
1889
1884
1873
1863
1859
1854
1850
1844
1840
1831
1820
1808
1799
1797
1801
1802
1804
1808
1808
1814
1822
1828
1830
1831
1830
1832
1839
1840
1840
1839
1831
1826
1819
1809
1807
1802
1804
1804
1810
1815
1826
1838
1845
1856
1862
1870
1873
1878
1875
1873
1861
1840
1823
1808
1801
1792
1789
1790
1791
1790
1793
1789
1791
1791
1792
1794
1793
1793
1793
1792
1790
1782
1778
1779
1781
1787
1793
1805
1808
1813
1815
1815
1811
1806
1795
1787
1776
1770
1770
1776
1787
1796
1805
1810
1820
1825
1830
1834
1840
1841
1840
1840
1840
1837
1830
1828
1831
1825
1828
1835
1835
1830
1831
1817
1806
1791
1782
1776
1771
1775
1777
1786
1789
1808
1814
1824
1830
1838
1841
1843
1843
1840
1837
1834
1823
1819
1811
1808
1799
1799
1793
1792
1792
1793
1795
1794
1795
1797
1803
1807
1809
1817
1824
1830
1837
1840
1838
1837
1833
1829
1817
1813
1808
1806
1803
1804
1806
1808
1815
1828
1841
1846
1859
1862
1863
1865
1857
1849
1840
1826
1818
1809
1808
1808
1808
1810
1818
1829
1839
1849
1862
1874
1887
1895
1904
1906
1905
1904
1904
1900
1898
1893
1889
1883
1883
1872
1872
1872
1875
1878
1882
1889
1889
1893
1895
1901
1904
1904
1904
1904
1893
1884
1871
1855
1843
1834
1829
1830
1836
1845
1851
1853
1863
1853
1851
1842
1851
1853
1854
1857
1856
1857
1865
1871
1880
1891
1898
1902
1904
1905
1904
1901
1898
1887
1879
1872
1870
1867
1869
1867
1862
1872
1872
1879
1883
1889
1893
1903
1904
1914
1927
1943
1962
1978
1991
2000
2000
2000
1999
2000
2002
2007
2017
2019
2023
2032
2035
2045
2058
2061
2062
2062
2047
2041
2032
2025
2017
2011
2010
2006
2011
2016
2018
2031
2032
2033
2037
2034
2031
2023
2017
2011
2011
2009
2013
2017
2015
2015
2014
2003
1991
1985
1975
1969
1959
1950
1939
1925
1914
1905
1903
1903
1904
1903
1903
1899
1893
1883
1872
1863
1855
1849
1847
1851
1856
1873
1873
1885
1891
1903
1906
1911
1915
1914
1905
1903
1890
1879
1872
1865
1856
1855
1851
1846
1843
1838
1826
1811
1803
1789
1785
1782
1779
1783
1787
1785
1784
1782
1780
1777
1776
1779
1781
1787
1786
1783
1777
1777
1776
1786
1794
1806
1812
1815
1817
1826
1822
1829
1835
1839
1840
1838
1835
1826
1815
1808
1799
1797
1793
1789
1779
1773
1767
1769
1765
1773
1783
1803
1827
1856
1890
1925
1963
1999
2034
2083
2117
2157
2192
2229
2271
2319
2367
2425
2471
2515
2546
2591
2619
2643
2671
2691
2709
2727
2741
2758
2769
2767
2755
2727
2679
2623
2549
2467
2383
2298
2213
2135
2060
1983
1921
1869
1823
1788
1761
1743
1728
1717
1712
1711
1712
1697
1682
1670
1661
1654
1660
1674
1685
1701
1712
1716
1718
1717
1712
1714
1721
1732
1744
1760
1776
1783
1792
1801
1808
1812
1819
1811
1808
1799
1803
1802
1807
1801
1791
1776
1754
1732
1710
1686
1670
1657
1647
1642
1646
1658
1671
1686
1698
1716
1726
1735
1739
1744
1745
1750
1753
1757
1771
1776
1786
1792
1799
1806
1810
1823
1835
1850
1863
1872
1878
1884
1884
1887
1886
1889
1891
1891
1893
1892
1887
1883
1879
1872
1872
1872
1871
1867
1859
1856
1853
1854
1865
1870
1881
1888
1898
1901
1900
1902
1904
1906
1910
1911
1915
1913
1907
1903
1899
1898
1903
1905
1914
1919
1925
1935
1936
1949
1958
1969
1983
1991
1999
2005
2005
2005
2000
2000
1996
1995
1987
1989
1987
1984
1981
1982
1984
1985
1987
1985
1984
1979
1973
1961
1957
1951
1955
1961
1968
1981
1991
2001
2017
2020
2023
2027
2032
2034
2047
2047
2063
2066
2065
2064
2062
2047
2038
2033
2036
2046
2064
2082
2099
2115
2129
2143
2151
2157
2158
2155
2151
2143
2134
2128
2117
2108
2096
2087
2082
2084
2090
2103
2113
2138
2147
2163
2177
2190
2198
2206
2215
2225
2235
2247
2256
2259
2262
2258
2256
2253
2251
2252
2253
2253
2253
2256
2263
2273
2283
2293
2303
2311
2321
2327
2333
2327
2331
2335
2339
2343
2351
2353
2357
2363
2367
2375
2382
2382
2383
2382
2375
2371
2363
2352
2343
2335
2331
2331
2338
2351
2363
2382
2395
2411
2421
2431
2431
2427
2430
2429
2421
2410
2391
2375
2351
2323
2298
2269
2241
2215
2192
2170
2155
2142
2131
2127
2127
2125
2119
2114
2107
2098
2096
2096
2091
2090
2081
2070
2063
2047
2041
2034
2032
2030
2023
2013
1997
1979
1955
1935
1910
1893
1872
1851
1829
1808
1791
1785
1781
1787
1793
1797
1806
1815
1823
1827
1829
1829
1828
1825
1815
1801
1781
1763
1744
1725
1712
1706
1699
1702
1702
1712
1719
1732
1747
1761
1773
1779
1783
1781
1779
1776
1774
1769
1758
1753
1748
1744
1741
1742
1744
1750
1759
1765
1771
1776
1773
1766
1762
1754
1749
1744
1738
1732
1731
1731
1741
1747
1757
1763
1772
1781
1789
1798
1799
1809
1813
1812
1806
1794
1782
1767
1744
1727
1707
1689
1675
1664
1653
1653
1653
1664
1673
1686
1707
1718
1728
1738
1743
1745
1749
1748
1747
1741
1734
1737
1725
1723
1721
1725
1727
1737
1743
1748
1758
1761
1762
1758
1754
1748
1746
1744
1745
1742
1738
1734
1728
1730
1731
1727
1734
1739
1744
1745
1754
1764
1767
1775
1776
1782
1774
1771
1765
1765
1758
1776
1783
1789
1798
1805
1805
1803
1799
1791
1783
1779
1776
1776
1774
1773
1774
1776
1778
1778
1776
1771
1763
1755
1757
1756
1759
1760
1770
1784
1802
1823
1841
1854
1859
1862
1859
1857
1851
1846
1839
1833
1829
1821
1827
1835
1837
1838
1840
1840
1840
1839
1838
1837
1835
1833
1831
1827
1824
1817
1810
1809
1807
1803
1797
1792
1792
1793
1795
1806
1808
1809
1814
1814
1821
1823
1831
1838
1845
1852
1850
1845
1839
1834
1825
1818
1810
1802
1803
1802
1807
1811
1821
1825
1827
1826
1824
1820
1817
1814
1813
1814
1819
1827
1840
1850
1856
1854
1856
1854
1851
1859
1855
1856
1862
1859
1856
1851
1840
1827
1809
1795
1782
1782
1779
1781
1788
1799
1813
1829
1840
1844
1847
1845
1847
1843
1841
1837
1833
1821
1811
1806
1797
1793
1786
1776
1776
1774
1776
1788
1801
1808
1811
1811
1812
1816
1824
1838
1854
1863
1867
1871
1867
1866
1866
1862
1856
1855
1846
1841
1837
1825
1830
1831
1831
1833
1827
1826
1823
1820
1815
1808
1808
1796
1790
1783
1785
1790
1794
1801
1806
1808
1814
1814
1819
1818
1822
1823
1823
1826
1808
1802
1785
1776
1759
1753
1755
1759
1777
1782
1801
1816
1825
1834
1839
1846
1850
1852
1840
1849
1841
1838
1827
1823
1817
1814
1812
1814
1817
1815
1819
1825
1828
1837
1840
1849
1854
1859
1866
1866
1866
1863
1855
1840
1829
1819
1808
1801
1802
1800
1794
1786
1780
1777
1772
1765
1764
1766
1772
1777
1791
1808
1822
1834
1842
1852
1865
1859
1866
1869
1872
1871
1872
1872
1866
1853
1844
1833
1824
1818
1810
1811
1811
1816
1822
1823
1822
1824
1830
1839
1843
1849
1847
1842
1833
1822
1815
1806
1792
1780
1775
1766
1758
1756
1760
1765
1765
1765
1766
1769
1774
1775
1776
1779
1778
1778
1782
1791
1793
1793
1792
1795
1796
1795
1792
1789
1776
1767
1755
1744
1744
1744
1747
1758
1770
1781
1794
1808
1814
1821
1823
1822
1813
1808
1808
1805
1795
1790
1786
1781
1790
1783
1779
1776
1775
1775
1771
1776
1779
1779
1782
1786
1789
1797
1803
1808
1809
1811
1809
1808
1808
1812
1825
1831
1836
1839
1841
1845
1850
1855
1862
1867
1869
1870
1872
1870
1871
1869
1873
1876
1883
1895
1910
1920
1930
1932
1936
1938
1942
1953
1950
1947
1942
1936
1936
1930
1929
1927
1923
1927
1929
1933
1935
1935
1930
1928
1935
1941
1953
1968
1984
1998
2019
2032
2047
2059
2065
2064
2061
2047
2043
2032
2030
2023
2013
2011
2001
1993
1979
1964
1950
1953
1939
1940
1947
1950
1953
1954
1949
1951
1955
1959
1959
1962
1957
1951
1943
1931
1915
1903
1894
1887
1898
1910
1929
1947
1959
1970
1974
1971
1967
1955
1940
1920
1919
1911
1909
1907
1905
1903
1895
1886
1874
1868
1863
1869
1878
1886
1895
1904
1906
1910
1905
1897
1878
1860
1840
1828
1813
1803
1796
1796
1797
1799
1807
1808
1818
1826
1836
1844
1850
1853
1850
1843
1835
1819
1806
1790
1779
1776
1774
1775
1779
1791
1808
1819
1839
1851
1862
1859
1864
1856
1845
1835
1824
1821
1824
1837
1856
1872
1906
1943
1984
2027
2070
2110
2149
2190
2224
2266
2309
2358
2407
2452
2495
2537
2559
2611
2639
2665
2679
2699
2707
2715
2715
2715
2715
2715
2716
2705
2695
2676
2643
2601
2529
2461
2384
2305
2225
2157
2091
2019
1959
1909
1867
1831
1807
1790
1777
1774
1771
1773
1771
1773
1776
1776
1783
1791
1800
1807
1812
1813
1813
1812
1811
1808
1808
1810
1815
1824
1835
1841
1848
1846
1844
1840
1833
1822
1814
1810
1807
1801
1794
1789
1782
1775
1769
1765
1771
1775
1789
1794
1804
1810
1810
1821
1825
1830
1831
1831
1827
1822
1819
1824
1830
1834
1834
1830
1834
1831
1831
1825
1830
1834
1830
1826
1826
1827
1825
1833
1838
1845
1854
1859
1863
1865
1861
1858
1857
1854
1853
1847
1844
1842
1847
1846
1863
1872
1874
1886
1895
1899
1904
1909
1907
1907
1909
1911
1915
1918
1925
1935
1936
1941
1948
1957
1968
1969
1975
1968
1962
1945
1926
1909
1889
1872
1858
1847
1851
1856
1866
1875
1891
1908
1922
1936
1950
1963
1968
1967
1967
1959
1954
1947
1945
1947
1955
1959
1954
1962
1962
1958
1954
1952
1935
1920
1909
1904
1899
1904
1909
1919
1928
1938
1945
1954
1965
1965
1971
1978
1983
1983
1985
1985
1983
1975
1970
1971
1959
1959
1966
1968
1972
1977
1979
1979
1979
1971
1967
1968
1968
1974
1987
2000
2010
2017
2017
2011
1991
1986
1971
1965
1962
1957
1951
1947
1947
1945
1948
1957
1963
1970
1979
1983
1984
1984
1987
1989
1990
1995
1999
2006
2018
2017
2032
2039
2047
2064
2071
2082
2087
2090
2087
2084
2083
2085
2084
2087
2096
2108
2123
2127
2139
2141
2143
2143
2143
2140
2133
2133
2130
2128
2125
2126
2119
2119
2123
2128
2131
2135
2143
2143
2147
2146
2143
2141
2138
2135
2135
2138
2135
2133
2128
2126
2119
2112
2109
2099
2087
2073
2064
2046
2029
2012
1998
1981
1963
1951
1936
1923
1917
1904
1889
1876
1869
1861
1855
1855
1844
1839
1833
1820
1808
1797
1789
1776
1771
1764
1759
1749
1741
1726
1712
1697
1680
1667
1654
1650
1644
1644
1645
1648
1648
1649
1648
1648
1648
1644
1635
1625
1622
1621
1627
1626
1616
1606
1591
1582
1570
1561
1554
1535
1535
1535
1535
1535
1535
1535
1535
1535
1552
1555
1554
1552
1535
1535
1535
1535
1535
1535
1527
1526
1521
1521
1524
1531
1535
1553
1561
1566
1568
1561
1557
1552
1535
1530
1520
1520
1520
1520
1522
1526
1530
1535
1535
1533
1521
1518
1504
1498
1499
1504
1507
1510
1520
1529
1535
1552
1569
1580
1584
1587
1586
1584
1584
1577
1565
1557
1535
1534
1531
1523
1526
1530
1532
1535
1560
1574
1584
1591
1598
1601
1609
1617
1624
1626
1626
1637
1648
1659
1667
1680
1695
1700
1706
1700
1696
1681
1666
1648
1637
1620
1616
1616
1616
1622
1634
1648
1649
1665
1680
1680
1683
1689
1696
1700
1705
1710
1714
1719
1725
1725
1728
1728
1724
1725
1717
1712
1710
1699
1698
1696
1693
1693
1687
1683
1680
1671
1666
1668
1671
1677
1680
1680
1675
1669
1664
1662
1664
1664
1666
1673
1681
1680
1680
1684
1681
1675
1663
1654
1631
1616
1610
1615
1618
1633
1652
1681
1712
1744
1776
1802
1811
1822
1821
1815
1808
1789
1771
1753
1743
1734
1728
1722
1716
1711
1702
1713
1715
1725
1740
1749
1763
1773
1779
1780
1785
1791
1797
1803
1807
1810
1809
1808
1803
1793
1786
1776
1766
1755
1753
1751
1762
1771
1782
1793
1803
1814
1825
1837
1847
1854
1859
1862
1867
1866
1863
1851
1838
1825
1822
1829
1840
1856
1869
1891
1891
1904
1909
1910
1907
1903
1899
1899
1904
1904
1911
1911
1919
1925
1927
1922
1920
1916
1915
1911
1919
1927
1936
1942
1945
1943
1936
1936
1929
1922
1917
1911
1909
1910
1919
1921
1927
1932
1936
1941
1946
1950
1945
1947
1939
1935
1932
1934
1936
1938
1943
1951
1953
1946
1941
1931
1927
1920
1914
1910
1907
1904
1901
1894
1891
1889
1895
1898
1899
1901
1895
1897
1897
1899
1904
1920
1947
1958
1975
1987
2000
2014
2018
2011
2009
1999
1987
1982
1977
1974
1974
1979
1983
1983
1984
1987
1991
1985
1975
1968
1967
1964
1958
1951
1950
1948
1952
1955
1965
1968
1967
1966
1962
1963
1967
1970
1975
1975
1970
1963
1956
1949
1943
1942
1947
1949
1957
1957
1973
1975
1974
1974
1974
1975
1978
1978
1974
1973
1969
1971
1968
1969
1967
1966
1959
1947
1936
1922
1917
1908
1905
1904
1906
1907
1917
1923
1933
1936
1936
1939
1943
1946
1950
1943
1936
1931
1923
1915
1907
1897
1890
1885
1883
1891
1901
1905
1918
1931
1936
1949
1962
1965
1967
1968
1968
1963
1957
1951
1948
1947
1943
1949
1948
1957
1966
1974
1981
1984
1986
1986
1984
1982
1977
1967
1956
1939
1929
1920
1909
1904
1902
1904
1904
1908
1917
1923
1931
1937
1939
1952
1959
1962
1966
1962
1953
1947
1937
1941
1933
1927
1926
1923
1917
1913
1910
1915
1917
1920
1936
1942
1951
1961
1961
1964
1963
1965
1968
1965
1962
1959
1958
1956
1965
1971
1987
2000
2014
2027
2027
2027
2023
2021
2015
2012
2001
1998
1991
1982
1975
1971
1968
1967
1968
1966
1968
1969
1970
1970
1970
1968
1964
1959
1948
1937
1931
1925
1922
1920
1924
1926
1933
1935
1942
1951
1954
1957
1966
1968
1973
1979
1978
1991
1991
1991
1986
1979
1973
1962
1954
1943
1943
1953
1967
1975
1991
2002
2018
2029
2039
2043
2065
2076
2083
2084
2082
2077
2070
2063
2063
2056
2047
2047
2047
2054
2058
2047
2063
2066
2075
2081
2089
2096
2096
2097
2097
2096
2097
2096
2102
2105
2102
2097
2094
2087
2080
2077
2073
2074
2074
2078
2078
2079
2077
2070
2064
2058
2043
2033
2023
2005
1994
1984
1979
1969
1968
1967
1968
1967
1967
1967
1963
1952
1951
1943
1937
1935
1931
1927
1931
1931
1935
1934
1933
1927
1923
1921
1919
1923
1929
1927
1920
1919
1911
1903
1888
1872
1862
1854
1846
1846
1845
1842
1845
1846
1855
1856
1875
1886
1890
1894
1895
1895
1891
1879
1873
1869
1859
1851
1840
1833
1819
1808
1799
1791
1786
1781
1783
1787
1787
1791
1798
1806
1815
1826
1835
1835
1838
1840
1843
1847
1850
1851
1855
1863
1872
1882
1899
1918
1939
1970
2001
2035
2081
2122
2160
2203
2251
2295
2343
2389
2437
2482
2527
2559
2607
2627
2643
2657
2670
2679
2691
2699
2707
2715
2719
2725
2723
2705
2672
2626
2559
2493
2416
2337
2256
2178
2100
2025
1964
1915
1872
1842
1821
1803
1789
1776
1772
1770
1766
1763
1770
1774
1775
1778
1780
1778
1793
1793
1795
1798
1798
1808
1807
1809
1815
1817
1825
1827
1833
1840
1848
1859
1870
1881
1886
1888
1886
1881
1876
1882
1879
1881
1881
1883
1887
1891
1886
1873
1858
1843
1829
1822
1809
1808
1807
1808
1809
1811
1818
1822
1831
1840
1841
1855
1865
1870
1872
1876
1875
1878
1884
1890
1901
1907
1919
1931
1923
1918
1915
1902
1890
1875
1867
1857
1854
1853
1854
1863
1878
1894
1914
1935
1953
1971
1984
1999
2000
1999
1985
1970
1955
1936
1918
1892
1872
1861
1851
1843
1850
1858
1873
1886
1903
1917
1920
1927
1932
1936
1936
1939
1939
1941
1937
1936
1936
1936
1934
1935
1936
1943
1946
1947
1951
1958
1961
1966
1967
1963
1953
1952
1947
1942
1939
1937
1942
1945
1949
1957
1964
1968
1965
1962
1951
1942
1934
1926
1918
1919
1921
1934
1937
1969
1993
2027
2061
2084
2096
2098
2093
2081
2065
2046
2031
2013
1998
1986
1980
1982
1981
1983
1986
2000
1999
2001
2004
2015
2026
2033
2047
2061
2065
2065
2065
2073
2077
2089
2095
2097
2098
2097
2098
2096
2095
2094
2094
2094
2089
2087
2092
2093
2096
2097
2102
2106
2113
2117
2123
2128
2130
2135
2141
2147
2143
2145
2147
2148
2157
2157
2175
2189
2199
2213
2219
2219
2220
2220
2214
2213
2211
2209
2206
2205
2206
2205
2210
2211
2221
2225
2233
2239
2249
2255
2254
2253
2247
2237
2225
2213
2197
2187
2171
2160
2155
2147
2156
2161
2172
2179
2189
2192
2205
2209
2213
2209
2199
2191
2175
2160
2143
2131
2123
2111
2103
2094
2083
2075
2066
2060
2047
2039
2031
2017
1991
1985
1965
1942
1922
1902
1874
1847
1817
1790
1763
1737
1712
1685
1669
1649
1647
1648
1652
1664
1678
1687
1702
1710
1712
1712
1699
1681
1664
1644
1619
1601
1585
1573
1562
1562
1557
1564
1579
1594
1619
1646
1669
1693
1707
1717
1714
1701
1680
1660
1638
1615
1600
1586
1581
1574
1574
1574
1571
1570
1568
1565
1563
1568
1578
1589
1604
1617
1632
1643
1657
1673
1680
1680
1680
1673
1666
1662
1653
1648
1638
1630
1622
1617
1616
1616
1621
1625
1626
1637
1648
1659
1673
1680
1687
1694
1695
1695
1689
1682
1670
1661
1649
1643
1637
1634
1630
1632
1639
1633
1635
1638
1629
1645
1648
1655
1661
1667
1666
1664
1648
1635
1618
1600
1584
1566
1554
1555
1564
1578
1587
1600
1609
1619
1635
1649
1674
1700
1723
1743
1760
1776
1783
1794
1798
1803
1796
1788
1772
1746
1723
1701
1686
1680
1680
1689
1694
1711
1723
1739
1751
1757
1775
1775
1775
1771
1768
1765
1761
1758
1755
1751
1751
1754
1757
1762
1773
1778
1783
1789
1791
1790
1791
1791
1794
1797
1803
1813
1823
1837
1843
1849
1852
1854
1857
1857
1856
1851
1845
1843
1843
1845
1852
1859
1867
1872
1874
1872
1875
1879
1881
1885
1889
1895
1903
1908
1915
1916
1915
1909
1909
1907
1904
1904
1903
1900
1898
1890
1887
1881
1875
1870
1863
1853
1849
1855
1856
1858
1867
1875
1881
1888
1898
1917
1929
1934
1938
1937
1936
1941
1945
1947
1957
1965
1970
1982
1986
1995
1997
1994
1987
1983
1977
1971
1966
1958
1954
1955
1958
1963
1962
1966
1968
1968
1968
1967
1969
1968
1967
1966
1966
1968
1969
1974
1986
1995
2000
2003
2007
2005
2000
1987
1978
1968
1961
1954
1952
1957
1957
1959
1965
1968
1974
1981
1983
1985
1983
1986
1988
2001
2011
2011
2015
2021
2025
2028
2031
2029
2029
2021
2015
2011
2003
2000
1997
1987
1975
1968
1966
1961
1958
1962
1967
1977
1990
2000
2013
2017
2022
2023
2019
2017
2013
2018
2016
2025
2033
2060
2073
2091
2099
2106
2101
2096
2081
2066
2059
2039
2032
2021
2015
2015
2016
2020
2018
2019
2015
2007
2000
1989
1983
1974
1971
1968
1966
1969
1968
1966
1963
1961
1963
1965
1968
1981
1989
2001
2016
2031
2039
2043
2046
2046
2044
2039
2032
2021
2006
1996
1979
1962
1949
1937
1936
1935
1936
1943
1953
1962
1967
1970
1977
1978
1978
1971
1958
1959
1951
1943
1937
1935
1929
1921
1919
1915
1913
1917
1910
1911
1909
1912
1917
1922
1932
1941
1948
1951
1955
1947
1944
1936
1925
1921
1920
1922
1925
1929
1935
1941
1947
1951
1955
1958
1967
1967
1967
1966
1963
1957
1955
1951
1946
1936
1935
1927
1930
1938
1949
1961
1977
1994
2007
2019
2030
2032
2031
2023
2014
2006
2000
1991
1984
1982
1982
1981
1981
1981
1987
1999
2005
2015
2023
2027
2028
2031
2027
2026
2017
2002
1996
1990
1995
1984
1984
1987
1987
1998
1999
2001
2006
2002
2001
1998
1999
2003
2011
2019
2026
2026
2022
2015
2000
1989
1979
1973
1983
1984
1986
1991
2000
2005
2011
2011
2010
1999
1989
1983
1978
1972
1974
1979
1984
1989
2002
2014
2027
2039
2047
2055
2055
2047
2035
2025
2011
2002
2000
2000
2003
2011
2013
2020
2026
2032
2029
2045
2047
2055
2058
2059
2057
2059
2047
2063
2065
2071
2081
2093
2103
2111
2125
2131
2143
2149
2153
2146
2139
2128
2123
2112
2101
2100
2102
2112
2126
2139
2159
2179
2198
2214
2221
2218
2215
2203
2191
2171
2153
2131
2112
2091
2068
2038
2014
1995
1973
1969
1969
1975
1995
2007
2021
2032
2039
2047
2063
2064
2064
2063
2046
2038
2034
2032
2029
2029
2023
2015
2003
1994
1983
1968
1949
1932
1910
1894
1881
1872
1863
1856
1851
1850
1855
1863
1874
1891
1895
1901
1904
1904
1904
1901
1893
1881
1872
1867
1865
1868
1863
1855
1853
1845
1842
1839
1825
1813
1806
1802
1795
1798
1803
1809
1814
1821
1825
1829
1834
1838
1839
1840
1839
1839
1833
1829
1825
1818
1813
1809
1803
1797
1791
1785
1777
1776
1778
1779
1799
1815
1840
1862
1894
1925
1954
1983
2010
2032
2066
2097
2128
2162
2199
2243
2295
2352
2416
2463
2514
2559
2603
2630
2649
2667
2679
2691
2703
2715
2730
2735
2738
2725
2695
2651
2597
2523
2453
2379
2291
2211
2127
2037
1957
1882
1814
1760
1714
1689
1669
1661
1657
1664
1669
1680
1687
1699
1702
1705
1708
1706
1702
1709
1711
1711
1709
1708
1702
1709
1696
1687
1680
1680
1680
1683
1691
1699
1707
1712
1717
1729
1742
1745
1757
1759
1758
1751
1738
1723
1708
1690
1678
1659
1648
1636
1633
1622
1622
1625
1633
1645
1648
1654
1655
1651
1648
1647
1647
1648
1646
1641
1641
1646
1652
1651
1659
1664
1665
1671
1678
1680
1686
1685
1687
1687
1693
1695
1694
1687
1682
1680
1677
1675
1680
1689
1704
1717
1731
1744
1757
1766
1774
1771
1767
1769
1745
1741
1733
1728
1718
1721
1722
1725
1728
1733
1737
1744
1745
1749
1758
1770
1781
1791
1798
1799
1793
1789
1788
1784
1779
1777
1776
1772
1767
1759
1747
1739
1727
1714
1711
1712
1716
1731
1746
1767
1782
1799
1809
1815
1826
1831
1835
1837
1839
1842
1845
1854
1855
1855
1854
1849
1842
1840
1838
1827
1813
1808
1802
1793
1805
1808
1809
1808
1813
1821
1832
1845
1863
1874
1888
1898
1904
1911
1926
1929
1936
1949
1965
1969
1972
1969
1963
1954
1945
1936
1934
1925
1927
1935
1943
1958
1970
1983
1991
1999
1997
1990
1978
1969
1961
1952
1951
1952
1969
1983
2005
2021
2033
2046
2064
2075
2083
2090
2091
2091
2090
2092
2087
2085
2083
2079
2077
2075
2080
2081
2071
2082
2082
2089
2107
2125
2149
2176
2207
2230
2254
2265
2275
2274
2271
2263
2256
2249
2243
2235
2231
2227
2233
2239
2247
2256
2263
2271
2278
2287
2299
2315
2323
2331
2334
2327
2335
2333
2334
2333
2331
2331
2326
2322
2319
2317
2308
2303
2298
2293
2288
2283
2269
2255
2236
2222
2195
2177
2160
2149
2144
2138
2142
2143
2143
2141
2135
2129
2121
2109
2096
2083
2074
2067
2064
2058
2043
2034
2026
2011
1999
1983
1970
1965
1964
1968
1978
1987
1999
2009
2017
2018
2018
2021
2019
2017
2012
2000
1983
1965
1951
1938
1925
1924
1920
1919
1921
1926
1935
1943
1956
1964
1968
1968
1967
1958
1947
1936
1931
1929
1932
1933
1936
1936
1935
1931
1927
1911
1899
1876
1858
1839
1823
1812
1807
1806
1808
1810
1823
1834
1843
1855
1866
1872
1879
1884
1885
1881
1872
1861
1850
1835
1824
1811
1804
1792
1787
1784
1777
1792
1807
1821
1839
1848
1859
1869
1872
1872
1872
1872
1867
1862
1856
1855
1856
1861
1862
1861
1863
1863
1866
1872
1883
1891
1901
1904
1907
1906
1906
1904
1895
1886
1881
1874
1872
1870
1869
1877
1889
1903
1909
1918
1921
1922
1921
1921
1919
1917
1919
1921
1927
1935
1941
1949
1951
1953
1950
1943
1939
1933
1920
1909
1898
1893
1895
1899
1904
1915
1929
1938
1960
1957
1958
1963
1965
1967
1967
1965
1962
1957
1950
1948
1939
1938
1931
1927
1921
1913
1904
1898
1890
1887
1891
1891
1898
1900
1902
1903
1904
1905
1905
1906
1907
1907
1905
1905
1904
1906
1911
1917
1922
1921
1921
1918
1919
1915
1911
1904
1903
1898
1904
1908
1919
1935
1946
1955
1966
1969
1972
1968
1967
1963
1952
1939
1927
1914
1901
1890
1882
1878
1875
1872
1876
1878
1882
1885
1889
1894
1902
1907
1919
1926
1936
1945
1967
1971
1983
1990
1992
1985
1979
1968
1959
1953
1949
1945
1952
1968
1984
2000
2005
2018
2014
2003
2002
1997
1984
1979
1968
1959
1950
1941
1938
1939
1945
1950
1950
1953
1952
1947
1943
1942
1941
1942
1950
1957
1965
1968
1970
1970
1977
1979
1975
1975
1975
1978
1971
1969
1969
1975
1978
1983
1989
1989
1987
1990
1989
1994
1991
1990
1985
1985
1983
1977
1968
1965
1960
1967
1959
1957
1962
1963
1961
1953
1949
1943
1936
1931
1931
1934
1936
1938
1949
1962
1973
1989
2000
2005
2011
2010
2006
1998
1983
1968
1959
1951
1944
1936
1931
1926
1919
1921
1918
1909
1909
1911
1922
1924
1931
1930
1932
1927
1927
1929
1932
1938
1954
1969
1991
2005
2015
2018
2021
2021
2011
2001
1993
1981
1968
1959
1953
1950
1947
1949
1943
1939
1935
1925
1915
1906
1904
1901
1901
1907
1926
1941
1955
1966
1978
1983
1997
2005
2017
2022
2021
2012
1999
1981
1965
1941
1924
1908
1897
1886
1885
1888
1889
1898
1909
1923
1936
1951
1961
1969
1974
1971
1969
1959
1955
1953
1951
1957
1957
1959
1968
1968
1966
1959
1950
1947
1947
1946
1947
1949
1946
1941
1936
1927
1915
1904
1894
1891
1892
1894
1903
1911
1920
1931
1936
1942
1948
1951
1953
1948
1945
1939
1938
1938
1940
1947
1959
1971
1983
1993
1997
1995
1994
1991
1987
1986
1987
1990
1996
2000
2003
2007
2007
2003
2001
2000
1996
1987
1978
1968
1958
1954
1951
1955
1957
1965
1973
1983
1999
2003
2012
2015
2011
2007
2003
1999
1987
1983
1974
1970
1968
1967
1965
1961
1954
1949
1946
1950
1952
1957
1965
1968
1975
1980
1981
1983
1979
1979
1974
1968
1962
1967
1963
1971
1982
1996
2000
2011
2013
2015
2011
2011
2013
2011
2015
2016
2014
2011
2003
1998
1984
1979
1974
1975
1974
1980
1983
1998
2007
2018
2042
2064
2074
2083
2087
2095
2091
2075
2058
2034
2019
2006
1999
1989
1993
1991
1987
1988
1989
1994
1990
1983
1979
1975
1973
1971
1968
1967
1961
1955
1954
1947
1938
1930
1917
1905
1889
1872
1856
1847
1842
1840
1831
1826
1824
1826
1825
1823
1826
1830
1831
1826
1818
1808
1805
1794
1787
1782
1777
1779
1780
1785
1783
1780
1775
1778
1781
1781
1782
1781
1777
1776
1769
1763
1755
1750
1748
1748
1743
1745
1749
1755
1760
1762
1761
1763
1766
1771
1781
1786
1802
1810
1815
1819
1821
1813
1807
1802
1801
1797
1799
1797
1792
1786
1787
1785
1783
1791
1795
1801
1807
1809
1821
1840
1858
1881
1915
1951
1999
2046
2097
2134
2167
2198
2224
2254
2283
2317
2355
2401
2451
2502
2546
2595
2635
2671
2699
2725
2742
2757
2763
2767
2768
2765
2767
2759
2739
2707
2669
2615
2545
2480
2411
2334
2259
2186
2114
2041
1971
1909
1855
1806
1762
1731
1710
1694
1684
1680
1670
1669
1670
1666
1663
1676
1688
1707
1723
1739
1758
1771
1777
1786
1789
1790
1786
1781
1776
1775
1769
1767
1761
1761
1757
1750
1745
1739
1733
1728
1730
1734
1744
1760
1776
1794
1807
1811
1818
1821
1823
1819
1813
1808
1805
1795
1790
1776
1771
1765
1759
1754
1747
1743
1739
1742
1744
1746
1757
1761
1766
1770
1774
1771
1767
1765
1770
1770
1773
1773
1773
1772
1774
1779
1783
1794
1808
1824
1840
1857
1871
1879
1885
1889
1891
1886
1882
1872
1866
1855
1840
1829
1808
1792
1776
1767
1771
1777
1798
1811
1838
1861
1887
1910
1936
1951
1963
1968
1966
1965
1962
1962
1966
1965
1963
1959
1966
1969
1983
1987
1994
2000
2002
2010
2013
2021
2025
2023
2018
2023
2023
2025
2021
2019
2011
2011
2019
2030
2043
2058
2067
2077
2078
2077
2079
2090
2087
2096
2096
2096
2101
2109
2119
2133
2143
2157
2163
2167
2165
2163
2160
2160
2162
2170
2171
2178
2183
2189
2192
2191
2195
2194
2199
2203
2207
2207
2210
2208
2219
2226
2239
2251
2257
2263
2269
2268
2277
2269
2265
2262
2256
2251
2243
2239
2242
2247
2251
2254
2270
2279
2288
2303
2310
2320
2327
2331
2349
2359
2371
2385
2402
2416
2427
2439
2447
2455
2463
2469
2478
2474
2467
2467
2459
2455
2447
2439
2431
2427
2427
2429
2431
2435
2443
2451
2466
2487
2512
2539
2559
2559
2587
2591
2591
2583
2559
2559
2559
2559
2551
2543
2538
2535
2535
2535
2539
2544
2551
2556
2558
2559
2559
2555
2551
2547
2533
2522
2511
2499
2490
2477
2463
2447
2430
2410
2389
2370
2351
2337
2323
2314
2307
2303
2303
2299
2297
2293
2290
2288
2286
2276
2271
2259
2245
2229
2219
2205
2194
2185
2175
2160
2155
2147
2135
2128
2115
2107
2101
2095
2092
2095
2103
2116
2139
2149
2167
2189
2197
2207
2213
2215
2218
2215
2205
2192
2179
2159
2137
2116
2098
2082
2063
2057
2047
2047
2047
2063
2068
2075
2079
2082
2079
2083
2087
2095
2102
2109
2115
2117
2118
2115
2108
2096
2082
2064
2047
2034
2027
2022
2021
2021
2027
2032
2043
2061
2071
2082
2093
2104
2115
2128
2142
2154
2159
2159
2157
2153
2148
2143
2141
2141
2139
2137
2141
2143
2141
2143
2143
2143
2139
2135
2133
2131
2130
2128
2127
2126
2123
2125
2127
2131
2137
2145
2150
2157
2162
2171
2175
2174
2163
2158
2155
2139
2130
2126
2117
2114
2111
2117
2121
2128
2135
2151
2167
2188
2209
2225
2246
2256
2259
2271
2283
2283
2278
2267
2251
2233
2215
2193
2181
2166
2157
2141
2131
2128
2129
2130
2133
2137
2142
2155
2157
2159
2161
2161
2161
2158
2151
2135
2127
2119
2115
2112
2115
2121
2134
2153
2170
2190
2210
2226
2243
2256
2261
2263
2255
2243
2237
2212
2192
2183
2163
2157
2143
2130
2123
2115
2111
2107
2103
2107
2113
2119
2127
2135
2145
2159
2175
2191
2206
2215
2224
2219
2218
2203
2192
2181
2163
2142
2125
2099
2081
2064
2047
2036
2027
2016
2000
1991
1990
1991
2000
2011
2025
2037
2047
2059
2055
2046
2038
2032
2025
2015
2003
1997
1990
1985
1981
1975
1968
1959
1955
1951
1943
1942
1941
1939
1943
1950
1966
1982
1997
2015
2032
2047
2058
2059
2054
2038
2031
2017
2003
1999
1993
1984
1981
1975
1969
1970
1968
1968
1963
1947
1952
1954
1957
1955
1954
1952
1953
1953
1962
1968
1974
1982
1996
2004
2019
2027
2031
2032
2032
2032
2026
2019
2012
2002
1987
1974
1961
1947
1938
1937
1936
1941
1947
1953
1957
1963
1963
1963
1968
1975
1983
1987
1993
1995
1997
2000
2000
1999
1993
1986
1978
1969
1969
1971
1971
1975
1977
1982
1984
1991
1995
1991
1987
1975
1965
1947
1935
1925
1921
1919
1920
1921
1927
1936
1949
1963
1974
1999
2013
2028
2037
2046
2047
2047
2055
2041
2032
2019
2006
1990
1974
1962
1953
1951
1948
1949
1951
1952
1956
1955
1958
1956
1953
1943
1938
1933
1924
1922
1923
1924
1922
1926
1922
1920
1920
1925
1934
1936
1952
1967
1975
1981
1975
1967
1951
1939
1922
1915
1905
1900
1890
1877
1871
1872
1877
1882
1887
1895
1899
1893
1886
1872
1855
1842
1837
1830
1831
1839
1836
1839
1839
1840
1840
1841
1851
1857
1859
1867
1867
1869
1870
1872
1863
1851
1840
1829
1821
1810
1814
1812
1806
1804
1795
1790
1776
1764
1753
1744
1739
1734
1732
1731
1732
1738
1745
1747
1750
1762
1772
1780
1791
1795
1803
1808
1808
1808
1795
1783
1769
1757
1743
1734
1723
1712
1702
1699
1686
1682
1682
1682
1686
1701
1712
1725
1741
1750
1762
1773
1779
1785
1791
1785
1781
1776
1763
1775
1771
1761
1749
1741
1735
1728
1727
1727
1735
1743
1758
1773
1804
1819
1836
1840
1840
1841
1839
1830
1809
1795
1781
1771
1761
1754
1753
1755
1757
1766
1776
1789
1801
1808
1813
1809
1806
1796
1791
1785
1786
1791
1795
1807
1815
1827
1843
1856
1867
1873
1875
1877
1879
1883
1878
1873
1871
1863
1854
1840
1826
1811
1803
1791
1786
1776
1771
1757
1746
1735
1718
1702
1686
1680
1680
1687
1701
1719
1734
1745
1757
1761
1759
1746
1735
1723
1710
1692
1680
1665
1658
1653
1660
1653
1655
1651
1640
1631
1625
1628
1634
1634
1630
1623
1617
1612
1602
1593
1585
1584
1586
1599
1606
1616
1630
1648
1645
1648
1650
1648
1644
1625
1615
1594
1592
1597
1586
1585
1585
1586
1587
1585
1588
1595
1600
1602
1601
1598
1594
1590
1586
1584
1584
1584
1584
1585
1584
1584
1576
1569
1566
1535
1535
1535
1535
1552
1562
1577
1601
1641
1681
1731
1785
1841
1895
1936
1970
1998
2018
2035
2063
2087
2112
2147
2187
2230
2273
2320
2367
2417
2461
2497
2531
2559
2589
2609
2623
2629
2623
2603
2559
2515
2461
2399
2321
2241
2161
2081
2000
1926
1855
1785
1724
1667
1617
1582
1535
1515
1490
1478
1472
1470
1468
1474
1478
1488
1497
1505
1513
1516
1519
1525
1535
1535
1561
1566
1570
1580
1581
1590
1595
1604
1600
1607
1601
1594
1584
1572
1561
1558
1556
1554
1562
1566
1573
1584
1587
1593
1599
1604
1606
1603
1600
1589
1584
1574
1563
1554
1552
1552
1535
1555
1561
1564
1566
1566
1568
1568
1568
1580
1587
1600
1615
1628
1638
1650
1664
1670
1674
1673
1667
1659
1653
1645
1635
1632
1635
1635
1644
1647
1648
1647
1646
1642
1636
1630
1621
1616
1611
1606
1601
1597
1588
1593
1599
1607
1618
1629
1641
1650
1664
1669
1677
1680
1680
1682
1681
1681
1681
1680
1673
1671
1666
1666
1667
1677
1687
1700
1712
1715
1725
1731
1741
1744
1744
1744
1743
1744
1746
1750
1751
1758
1765
1775
1776
1782
1787
1790
1792
1795
1791
1786
1792
1774
1766
1754
1747
1743
1739
1737
1735
1733
1728
1721
1717
1713
1713
1720
1728
1742
1753
1761
1765
1759
1757
1746
1744
1743
1739
1735
1737
1733
1738
1746
1761
1781
1808
1829
1856
1874
1898
1909
1921
1927
1927
1927
1923
1916
1906
1899
1892
1894
1895
1901
1903
1907
1917
1924
1934
1939
1941
1945
1945
1950
1953
1959
1967
1968
1973
1978
1977
1974
1969
1969
1957
1968
1968
1970
1984
2005
2031
2059
2079
2096
2112
2123
2122
2121
2111
2097
2077
2061
2047
2034
2033
2039
2047
2070
2095
2115
2145
2167
2186
2197
2207
2217
2218
2219
2215
2213
2209
2203
2195
2190
2175
2175
2162
2146
2133
2117
2103
2095
2091
2095
2101
2111
2126
2133
2143
2155
2159
2165
2165
2163
2157
2142
2127
2102
2071
2038
2015
1987
1969
1958
1955
1940
1938
1936
1931
1923
1919
1907
1902
1882
1872
1859
1856
1853
1853
1850
1846
1840
1838
1824
1810
1799
1790
1778
1775
1773
1774
1775
1779
1785
1791
1781
1791
1787
1779
1767
1751
1740
1729
1722
1716
1712
1719
1739
1748
1759
1772
1773
1774
1766
1758
1751
1743
1737
1729
1720
1713
1706
1698
1693
1688
1681
1680
1680
1685
1698
1710
1719
1728
1734
1731
1728
1721
1712
1694
1677
1664
1656
1660
1665
1679
1681
1697
1710
1718
1722
1725
1730
1739
1745
1759
1769
1778
1789
1792
1798
1802
1803
1801
1794
1787
1776
1772
1766
1765
1760
1752
1745
1746
1743
1739
1738
1734
1733
1726
1719
1712
1710
1707
1712
1718
1731
1742
1756
1772
1783
1792
1792
1789
1787
1778
1772
1757
1749
1743
1744
1746
1753
1760
1774
1778
1787
1790
1790
1783
1783
1779
1776
1777
1779
1785
1792
1802
1808
1808
1805
1795
1795
1792
1791
1787
1789
1789
1789
1793
1794
1797
1806
1808
1811
1821
1829
1835
1840
1840
1839
1836
1831
1825
1821
1810
1807
1802
1802
1806
1807
1807
1803
1802
1804
1808
1809
1817
1825
1835
1845
1863
1875
1891
1898
1899
1893
1890
1882
1872
1863
1855
1840
1826
1812
1798
1785
1776
1775
1770
1770
1776
1789
1804
1815
1831
1840
1854
1855
1854
1852
1849
1841
1835
1827
1819
1813
1812
1812
1812
1808
1807
1806
1808
1810
1815
1819
1815
1814
1813
1812
1813
1813
1814
1813
1814
1815
1823
1821
1823
1823
1827
1829
1822
1819
1810
1808
1805
1805
1806
1808
1810
1810
1825
1835
1841
1843
1845
1841
1839
1831
1823
1809
1806
1797
1787
1776
1767
1769
1766
1781
1798
1812
1824
1839
1834
1835
1840
1846
1857
1872
1881
1898
1909
1914
1922
1925
1929
1927
1921
1923
1920
1916
1918
1920
1924
1924
1923
1922
1913
1904
1898
1894
1888
1885
1888
1889
1889
1892
1895
1898
1899
1899
1903
1907
1915
1924
1936
1955
1970
1984
1991
1997
1995
1982
1962
1937
1916
1895
1873
1862
1855
1853
1849
1856
1857
1859
1865
1870
1872
1878
1885
1888
1885
1875
1863
1847
1841
1827
1823
1824
1827
1829
1837
1842
1851
1859
1872
1879
1886
1893
1904
1909
1918
1919
1913
1905
1897
1887
1875
1869
1862
1855
1851
1849
1856
1862
1872
1884
1892
1905
1915
1922
1922
1920
1919
1914
1906
1905
1902
1891
1879
1865
1857
1841
1833
1829
1824
1828
1831
1832
1839
1840
1843
1845
1851
1856
1851
1843
1837
1821
1806
1795
1788
1790
1786
1785
1786
1786
1780
1779
1775
1772
1761
1753
1745
1742
1742
1746
1751
1762
1776
1791
1808
1822
1835
1838
1838
1834
1829
1822
1817
1808
1800
1789
1776
1758
1743
1722
1708
1699
1695
1693
1697
1699
1706
1709
1712
1711
1711
1706
1712
1712
1715
1713
1714
1719
1731
1741
1750
1757
1759
1757
1754
1748
1744
1739
1734
1729
1728
1722
1712
1699
1680
1664
1655
1649
1651
1659
1665
1670
1673
1673
1666
1664
1654
1648
1638
1634
1633
1636
1639
1639
1639
1635
1628
1618
1605
1582
1561
1530
1509
1488
1468
1442
1413
1386
1347
1310
1271
1237
1200
1168
1129
1104
1074
1043
1010
988
962
938
914
896
869
838
800
756
714
666
618
576
528
488
454
428
402
386
368
358
344
336
336
329
324
320
312
298
280
256
225
196
170
144
128
112
100
88
80
64
50
34
20
8
0
0
0
0
0
0
0
0
0
0
0
0
0
0
0
0
0
0
0
0
0
0
0
0
0
0
0
0
0
0
0
0
0
0
0
0
0
0
0
0
0
0
0
0
0
0
0
0
0
0
0
0
0
0
0
0
0
0
0
0
0
0
0
0
0
0
0
0
0
0
0
0
0
0
0
10
84
176
264
362
456
554
620
682
730
768
797
816
833
841
841
833
826
814
800
772
736
688
624
552
464
370
284
202
122
57
6
0
0
0
0
0
0
0
0
0
0
0
0
0
0
0
0
0
0
0
0
0
0
0
0
0
0
0
0
0
0
0
0
0
0
0
0
0
4
24
48
68
96
128
144
161
176
184
192
202
208
216
226
234
240
240
256
256
256
256
256
240
240
237
236
233
243
241
256
272
300
322
344
368
384
400
408
416
428
432
432
432
432
428
425
416
413
405
405
409
418
426
436
448
464
476
492
509
538
553
576
581
584
581
576
576
565
560
560
560
548
560
568
568
576
584
592
608
612
624
640
656
679
697
720
736
752
758
768
774
778
774
771
768
768
768
777
789
802
816
832
834
844
848
850
857
858
864
870
873
884
896
912
920
929
937
938
936
933
928
924
928
933
946
966
992
1008
1034
1050
1063
1072
1077
1088
1088
1094
1104
1106
1115
1126
1136
1154
1169
1185
1197
1203
1211
1210
1211
1209
1216
1217
1226
1233
1241
1248
1252
1253
1264
1266
1274
1280
1284
1286
1294
1296
1310
1316
1328
1332
1333
1339
1348
1360
1376
1396
1416
1427
1456
1478
1499
1519
1532
1552
1566
1577
1582
1585
1595
1602
1607
1614
1616
1618
1621
1622
1626
1633
1648
1661
1680
1700
1718
1728
1738
1747
1755
1767
1778
1797
1813
1837
1853
1866
1871
1873
1872
1872
1872
1870
1865
1859
1853
1845
1841
1840
1851
1863
1881
1893
1904
1915
1927
1935
1941
1950
1946
1938
1933
1921
1907
1899
1883
1873
1862
1849
1837
1821
1808
1795
1781
1771
1757
1745
1740
1732
1733
1744
1747
1757
1766
1767
1771
1768
1766
1754
1744
1730
1715
1706
1694
1680
1664
1643
1620
1602
1583
1560
1535
1525
1515
1500
1484
1463
1449
1433
1430
1424
1422
1415
1411
1408
1401
1392
1386
1378
1372
1366
1364
1363
1360
1360
1350
1344
1330
1316
1299
1287
1274
1267
1261
1256
1262
1264
1273
1290
1301
1323
1328
1335
1340
1342
1344
1344
1340
1332
1330
1328
1323
1317
1305
1290
1280
1265
1264
1262
1262
1264
1265
1276
1288
1305
1322
1344
1366
1389
1402
1409
1410
1408
1408
1404
1408
1408
1419
1424
1434
1440
1444
1446
1446
1445
1444
1447
1444
1445
1437
1433
1431
1429
1424
1421
1418
1414
1417
1422
1428
1446
1463
1474
1489
1501
1506
1510
1507
1502
1499
1496
1488
1486
1474
1472
1473
1477
1487
1501
1520
1535
1554
1575
1589
1599
1606
1611
1610
1603
1601
1598
1600
1598
1593
1597
1598
1600
1606
1616
1622
1638
1653
1666
1684
1694
1708
1717
1728
1730
1734
1733
1730
1726
1726
1729
1736
1743
1747
1754
1762
1767
1776
1786
1794
1798
1803
1808
1818
1829
1842
1856
1867
1881
1894
1904
1919
1921
1926
1936
1936
1942
1944
1943
1943
1943
1942
1940
1939
1938
1936
1941
1943
1944
1946
1951
1951
1964
1973
1983
1995
2000
2006
2015
2017
2014
2015
2013
2014
2016
2017
2022
2019
2022
2025
2023
2029
2035
2047
2064
2075
2083
2095
2101
2111
2116
2121
2123
2121
2112
2106
2099
2089
2081
2071
2067
2066
2071
2079
2088
2097
2112
2132
2149
2164
2175
2177
2178
2175
2165
2159
2156
2151
2149
2144
2143
2141
2143
2154
2164
2177
2189
2195
2203
2213
2224
2237
2251
2271
2285
2297
2307
2306
2309
2313
2311
2319
2320
2320
2319
2315
2306
2297
2288
2288
2287
2289
2291
2299
2309
2318
2331
2349
2359
2377
2390
2395
2390
2384
2379
2365
2352
2347
2338
2330
2322
2320
2323
2331
2347
2351
2355
2368
2375
2382
2378
2375
2374
2374
2367
2361
2358
2352
2352
2343
2340
2335
2335
2335
2343
2349
2352
2352
2352
2351
2352
2355
2366
2371
2381
2385
2395
2399
2395
2390
2383
2370
2362
2352
2343
2339
2331
2323
2317
2320
2327
2350
2370
2390
2413
2429
2447
2463
2480
2487
2495
2497
2497
2492
2486
2480
2471
2465
2451
2450
2448
2455
2470
2487
2507
2530
2547
2559
2607
2615
2639
2655
2671
2687
2704
2715
2731
2743
2759
2779
2787
2811
2831
2859
2883
2911
2939
2961
2983
3003
3015
3031
3055
3071
3111
3139
3171
3206
3239
3275
3312
3349
3387
3427
3455
3479
3503
3519
3537
3559
3583
3627
3669
3727
3775
3831
3863
3891
3915
3927
3947
3967
3987
3999
4015
4031
4049
4081
4095
4095
4095
4095
4095
4095
4095
4095
4095
4095
4095
4095
4095
4095
4095
4095
4095
4095
4095
4095
4095
4095
4095
4095
4095
4095
4095
4095
4095
4095
4095
4095
4095
4095
4095
4095
4095
4095
4095
4095
4095
4095
4095
4095
4095
4095
4095
4095
4095
4095
4095
4095
4095
4095
4095
4095
4095
4095
4095
4095
4095
4095
4095
4095
4095
4095
4095
4095
4095
4095
4095
4095
4095
4095
4095
4095
4095
4095
4095
4095
4095
4095
4095
4095
4095
4095
4095
4095
4095
4095
4095
4095
4095
4095
4095
4095
4095
4095
4095
4095
4095
4095
4095
4095
4095
4095
4095
4095
4095
4095
4095
4095
4095
4095
4095
4095
4095
4095
4095
4095
4095
4095
4095
4095
4095
4095
4095
4095
4095
4095
4095
4095
4095
4095
4095
4095
4095
4095
4095
4095
4095
4095
4095
4095
4095
4095
4095
4095
4095
4095
4095
4095
4095
4095
4095
4095
4095
4095
4095
4095
4095
4095
4095
4095
4095
4095
4095
4095
4095
4095
4095
4095
4095
4095
4095
4095
4095
4095
4095
4095
4095
4095
4095
4095
4095
4095
4095
4095
4095
4095
4095
4095
4095
4095
4095
4095
4095
4095
4095
4095
4095
4095
4095
4095
4095
4095
4095
4095
4095
4095
4095
4095
4095
4095
4095
4095
4095
4095
4095
4095
4095
4095
4095
4095
4095
4095
4095
4095
4095
4095
4095
4095
4095
4095
4095
4095
4095
4095
4095
4095
4095
4095
4095
4095
4095
4095
4095
4095
4095
4095
4095
4095
4095
4095
4095
4095
4095
4095
4095
4095
4095
4095
4095
4095
4095
4095
4095
4095
4095
4023
3901
3783
3671
3571
3487
3423
3377
3351
3343
3347
3359
3383
3407
3435
3455
3479
3503
3511
3515
3510
3495
3475
3463
3443
3435
3419
3407
3387
3367
3343
3326
3310
3295
3291
3283
3277
3275
3263
3255
3243
3231
3215
3199
3185
3171
3159
3147
3141
3135
3123
3119
3111
3109
3107
3110
3115
3127
3135
3152
3167
3175
3185
3185
3187
3182
3171
3159
3154
3151
3143
3135
3131
3115
3103
3071
3059
3039
3025
3011
3003
2995
2993
2987
2991
2987
2991
2992
2995
2997
2999
2998
2993
2989
2971
2959
2943
2935
2931
2927
2929
2935
2943
2951
2959
2959
2959
2959
2951
2950
2943
2938
2930
2927
2927
2927
2927
2926
2929
2929
2928
2928
2927
2927
2919
2911
2899
2887
2879
2867
2859
2855
2859
2853
2863
2863
2875
2879
2887
2887
2895
2899
2911
2924
2929
2939
2942
2943
2939
2933
2927
2917
2907
2896
2887
2871
2863
2853
2847
2839
2837
2839
2838
2835
2835
2839
2846
2859
2863
2867
2871
2877
2873
2867
2865
2864
2863
2861
2859
2853
2847
2839
2837
2834
2835
2835
2843
2847
2854
2859
2849
2854
2853
2854
2855
2855
2858
2864
2863
2863
2859
2851
2847
2845
2835
2829
2823
2819
2821
2827
2831
2837
2837
2843
2846
2843
2839
2831
2815
2814
2813
2815
2823
2832
2843
2851
2859
2867
2875
2881
2887
2896
2907
2919
2927
2927
2929
2927
2927
2925
2919
2915
2911
2909
2910
2910
2911
2915
2911
2911
2903
2895
2881
2879
2879
2883
2885
2885
2875
2869
2864
2851
2839
2832
2823
2814
2802
2787
2770
2755
2739
2727
2719
2707
2701
2687
2675
2666
2647
2635
2619
2597
2559
2543
2512
2487
2469
2443
2421
2405
2386
2373
2353
2341
2332
2323
2325
2325
2325
2322
2320
2319
2309
2297
2291
2279
2267
2256
2245
2238
2228
2222
2221
2217
2211
2199
2192
2187
2174
2167
2160
2149
2138
2128
2114
2107
2099
2096
2101
2097
2111
2112
2118
2115
2116
2115
2113
2107
2099
2085
2069
2059
2042
2032
2025
2020
2011
2003
2000
2000
2004
2012
2023
2035
2047
2071
2086
2089
2087
2083
2073
2067
2059
2047
2037
2031
2031
2031
2031
2031
2032
2031
2030
2023
2018
2014
2006
2000
1994
1991
1983
1981
1975
1975
1974
1975
1971
1972
1971
1975
1982
1986
1985
1984
1982
1979
1986
1993
1997
1999
1997
1989
1976
1966
1954
1943
1935
1920
1914
1910
1904
1904
1904
1914
1926
1938
1963
1982
2002
2020
2033
2033
2041
2038
2031
2025
2019
2006
2000
1993
1985
1968
1963
1954
1943
1933
1920
1911
1904
1905
1909
1911
1919
1925
1933
1936
1936
1939
1934
1927
1921
1909
1904
1894
1883
1874
1869
1865
1860
1858
1863
1872
1875
1879
1874
1871
1863
1856
1846
1841
1834
1829
1822
1814
1808
1801
1795
1792
1789
1786
1790
1795
1809
1823
1833
1843
1846
1850
1856
1850
1849
1840
1826
1812
1802
1791
1779
1776
1774
1774
1771
1766
1756
1752
1744
1733
1726
1722
1720
1727
1731
1744
1750
1752
1747
1744
1741
1739
1731
1729
1732
1737
1741
1744
1747
1750
1759
1770
1776
1789
1797
1801
1796
1793
1785
1779
1775
1774
1772
1774
1771
1770
1766
1771
1775
1776
1777
1776
1777
1777
1777
1776
1776
1780
1763
1756
1744
1733
1717
1702
1692
1680
1667
1665
1665
1673
1677
1682
1683
1690
1689
1685
1680
1681
1681
1685
1687
1690
1693
1696
1700
1707
1711
1702
1696
1707
1711
1709
1705
1696
1687
1674
1664
1655
1651
1652
1654
1659
1661
1665
1670
1680
1685
1694
1702
1711
1715
1725
1717
1712
1701
1687
1680
1668
1662
1648
1644
1637
1630
1626
1625
1626
1633
1645
1653
1663
1664
1678
1685
1690
1689
1686
1691
1693
1695
1693
1690
1682
1675
1660
1645
1625
1606
1589
1582
1580
1580
1583
1585
1590
1594
1594
1594
1587
1584
1584
1582
1579
1577
1573
1574
1571
1578
1582
1584
1587
1591
1595
1600
1604
1612
1616
1621
1630
1637
1644
1655
1662
1671
1679
1678
1673
1664
1654
1648
1639
1634
1625
1611
1594
1578
1559
1535
1535
1535
1535
1535
1535
1552
1557
1569
1580
1586
1596
1604
1613
1617
1621
1623
1630
1623
1625
1622
1616
1615
1615
1612
1616
1621
1631
1632
1629
1625
1617
1616
1607
1605
1600
1598
1597
1591
1593
1589
1589
1593
1595
1595
1599
1600
1599
1596
1597
1598
1601
1605
1615
1626
1642
1654
1666
1675
1674
1669
1663
1651
1645
1634
1626
1622
1621
1626
1635
1647
1657
1670
1680
1683
1697
1695
1692
1681
1671
1659
1648
1630
1616
1602
1595
1586
1584
1584
1594
1605
1611
1636
1639
1641
1636
1630
1622
1617
1616
1616
1611
1616
1629
1642
1648
1648
1648
1639
1629
1611
1596
1584
1573
1564
1554
1552
1552
1552
1552
1552
1552
1535
1535
1535
1535
1535
1535
1535
1535
1535
1535
1528
1522
1519
1509
1502
1499
1488
1488
1488
1483
1485
1486
1491
1502
1509
1520
1528
1535
1552
1555
1559
1553
1535
1527
1517
1506
1498
1490
1488
1485
1477
1472
1467
1462
1456
1452
1450
1450
1447
1446
1447
1452
1454
1455
1461
1466
1464
1469
1472
1474
1477
1477
1473
1472
1472
1472
1479
1488
1490
1498
1501
1506
1504
1501
1497
1495
1490
1491
1497
1502
1504
1507
1511
1518
1520
1520
1520
1520
1521
1522
1520
1520
1526
1535
1553
1558
1569
1579
1586
1597
1601
1609
1605
1605
1609
1605
1600
1584
1573
1561
1535
1529
1520
1520
1518
1515
1517
1517
1519
1518
1517
1510
1505
1498
1488
1474
1457
1445
1430
1425
1421
1421
1421
1422
1426
1429
1433
1429
1424
1415
1410
1401
1396
1389
1402
1406
1412
1413
1413
1409
1397
1390
1372
1358
1344
1330
1320
1306
1296
1290
1282
1280
1283
1290
1297
1308
1312
1312
1313
1312
1312
1314
1317
1316
1314
1312
1308
1304
1299
1299
1301
1306
1304
1312
1322
1325
1328
1328
1326
1328
1327
1328
1333
1341
1350
1360
1361
1362
1363
1366
1373
1373
1386
1392
1392
1393
1390
1386
1386
1366
1357
1345
1338
1336
1345
1360
1386
1410
1452
1493
1535
1593
1634
1675
1712
1744
1777
1808
1840
1875
1914
1953
1990
2032
2073
2112
2143
2174
2195
2215
2229
2246
2267
2291
2318
2339
2353
2357
2345
2318
2269
2211
2146
2073
1987
1911
1829
1747
1673
1600
1530
1470
1421
1387
1358
1344
1328
1322
1310
1301
1296
1296
1296
1296
1307
1322
1332
1345
1355
1355
1356
1358
1356
1357
1360
1365
1377
1392
1408
1421
1433
1445
1450
1450
1442
1434
1424
1412
1398
1388
1374
1360
1351
1346
1344
1340
1340
1341
1345
1352
1347
1349
1354
1357
1360
1362
1365
1362
1367
1373
1377
1386
1392
1398
1408
1417
1424
1429
1430
1434
1433
1429
1425
1420
1408
1396
1385
1376
1362
1353
1344
1344
1350
1356
1366
1388
1408
1425
1455
1471
1484
1490
1499
1503
1502
1496
1490
1485
1476
1471
1460
1456
1448
1437
1433
1425
1422
1416
1408
1406
1408
1412
1424
1431
1442
1445
1445
1440
1437
1440
1445
1456
1472
1489
1502
1517
1521
1525
1517
1505
1489
1477
1472
1467
1469
1477
1490
1504
1520
1532
1535
1557
1555
1535
1535
1523
1520
1515
1517
1519
1520
1523
1533
1535
1535
1535
1535
1556
1557
1559
1569
1568
1575
1577
1580
1584
1586
1591
1598
1601
1605
1607
1616
1616
1621
1625
1633
1644
1655
1664
1677
1683
1695
1704
1712
1714
1727
1723
1726
1726
1725
1721
1718
1715
1712
1712
1710
1712
1716
1735
1744
1762
1776
1791
1803
1812
1823
1829
1838
1840
1841
1840
1843
1843
1855
1857
1865
1877
1886
1897
1904
1907
1917
1921
1926
1936
1942
1950
1959
1967
1975
1983
1987
1991
1994
1994
1999
2000
2000
2010
2015
2021
2019
2019
2013
2013
2006
2005
2002
2000
2005
2013
2017
2026
2032
2035
2039
2042
2045
2044
2039
2034
2033
2034
2035
2037
2041
2039
2038
2035
2034
2033
2032
2033
2038
2039
2039
2035
2032
2023
2014
1997
1983
1968
1949
1933
1904
1901
1886
1872
1861
1840
1825
1810
1802
1797
1793
1791
1784
1776
1767
1759
1749
1744
1731
1716
1701
1681
1666
1655
1648
1645
1645
1641
1648
1651
1664
1675
1687
1696
1698
1698
1693
1684
1676
1660
1651
1635
1623
1623
1622
1625
1626
1625
1626
1618
1618
1608
1600
1591
1582
1569
1557
1552
1552
1560
1574
1587
1602
1615
1629
1629
1637
1642
1645
1645
1645
1633
1633
1636
1642
1647
1648
1649
1649
1648
1640
1633
1628
1627
1632
1642
1648
1651
1653
1661
1664
1666
1661
1657
1655
1653
1655
1661
1665
1664
1678
1677
1670
1652
1638
1628
1616
1606
1600
1595
1598
1607
1622
1646
1665
1691
1712
1725
1737
1743
1742
1737
1726
1714
1698
1679
1658
1637
1621
1610
1600
1599
1600
1606
1615
1624
1639
1648
1658
1668
1673
1680
1683
1685
1680
1680
1680
1680
1684
1689
1692
1696
1698
1697
1696
1691
1683
1674
1659
1648
1635
1629
1629
1635
1648
1664
1680
1699
1716
1734
1747
1752
1762
1764
1766
1765
1765
1765
1760
1758
1757
1753
1749
1749
1746
1747
1744
1742
1738
1728
1725
1721
1728
1734
1745
1755
1770
1777
1789
1790
1788
1783
1776
1776
1769
1759
1759
1754
1754
1758
1763
1776
1790
1808
1823
1840
1851
1859
1859
1856
1843
1831
1808
1785
1758
1731
1717
1712
1711
1714
1727
1739
1749
1766
1776
1781
1790
1795
1794
1780
1783
1776
1766
1768
1767
1771
1771
1776
1776
1773
1769
1772
1776
1776
1775
1771
1763
1756
1746
1735
1724
1712
1709
1710
1714
1722
1729
1735
1744
1744
1747
1754
1757
1759
1759
1759
1756
1757
1761
1758
1757
1746
1741
1730
1719
1705
1695
1682
1673
1666
1664
1664
1667
1675
1680
1684
1689
1687
1685
1682
1683
1683
1687
1691
1695
1701
1700
1698
1699
1697
1695
1692
1689
1683
1680
1679
1673
1677
1668
1665
1658
1655
1648
1650
1651
1648
1648
1648
1648
1652
1665
1673
1682
1693
1706
1713
1729
1743
1753
1767
1762
1759
1759
1755
1755
1746
1742
1733
1725
1721
1719
1728
1737
1749
1762
1773
1780
1789
1797
1802
1798
1797
1791
1781
1774
1774
1766
1763
1776
1776
1782
1787
1794
1795
1796
1799
1799
1796
1799
1803
1804
1808
1809
1813
1818
1825
1831
1839
1840
1841
1840
1840
1840
1842
1840
1840
1840
1840
1839
1831
1826
1817
1809
1803
1793
1788
1781
1778
1780
1785
1795
1805
1811
1817
1816
1809
1802
1791
1776
1765
1757
1761
1765
1776
1782
1791
1797
1799
1808
1818
1831
1840
1845
1851
1853
1854
1851
1846
1845
1843
1843
1843
1847
1854
1861
1868
1874
1876
1874
1872
1870
1868
1857
1855
1846
1842
1837
1824
1819
1814
1811
1813
1817
1825
1831
1840
1842
1843
1841
1840
1838
1837
1840
1842
1849
1853
1859
1867
1875
1886
1901
1909
1921
1926
1933
1935
1934
1930
1925
1921
1923
1926
1936
1942
1950
1955
1955
1953
1952
1947
1946
1941
1939
1936
1931
1929
1921
1919
1914
1909
1910
1913
1919
1926
1936
1945
1951
1956
1961
1959
1965
1965
1963
1956
1955
1954
1955
1957
1957
1963
1965
1967
1965
1962
1960
1959
1968
1980
1991
2007
2024
2032
2033
2033
2029
2021
2015
2002
1987
1984
1977
1977
1981
1984
1982
1985
1984
1985
1987
1989
1989
1990
1989
1985
1978
1971
1968
1969
1972
1975
1979
1984
1984
1987
1990
1995
2000
2003
2012
2017
2025
2030
2031
2022
2018
2002
1994
1990
1994
1999
2011
2023
2031
2032
2032
2026
2019
2016
2013
2004
1995
1983
1971
1968
1959
1947
1936
1931
1929
1925
1927
1936
1949
1961
1968
1981
1985
1988
1984
1981
1968
1957
1941
1931
1917
1906
1901
1897
1899
1904
1911
1924
1936
1947
1955
1968
1984
2005
2032
2063
2083
2096
2103
2111
2110
2111
2107
2099
2096
2091
2087
2081
2078
2067
2064
2061
2061
2064
2059
2061
2062
2063
2063
2063
2065
2067
2070
2075
2082
2083
2093
2095
2098
2098
2099
2106
2107
2106
2107
2099
2096
2096
2094
2089
2082
2074
2066
2064
2060
2055
2047
2037
2035
2029
2023
2010
2005
1997
1989
1984
1972
1966
1955
1949
1954
1957
1963
1969
1975
1998
2007
2017
2027
2027
2021
2013
2002
1995
1989
1980
1975
1968
1967
1963
1962
1955
1952
1954
1947
1949
1954
1965
1973
1984
1987
1993
1995
1999
1998
2000
2001
2011
2006
2023
2019
2018
2011
2004
2000
2002
1997
2007
2015
2022
2026
2026
2023
2022
2019
2021
2027
2032
2043
2062
2075
2083
2095
2107
2114
2125
2129
2133
2132
2139
2143
2147
2150
2153
2160
2163
2181
2197
2215
2235
