1935
1937
1940
1942
1941
1943
1946
1946
1947
1950
1951
1955
1957
1963
1963
1967
1966
1968
1967
1967
1965
1965
1965
1965
1964
1965
1965
1968
1968
1968
1969
1969
1975
1974
1978
1975
1975
1975
1970
1969
1967
1967
1966
1964
1967
1965
1968
1966
1968
1968
1968
1969
1968
1967
1966
1957
1959
1954
1950
1949
1949
1947
1945
1943
1943
1946
1946
1948
1951
1952
1951
1950
1951
1950
1951
1948
1946
1943
1941
1945
1941
1938
1939
1942
1942
1942
1942
1945
1947
1948
1946
1946
1946
1939
1937
1937
1936
1936
1933
1926
1922
1921
1917
1914
1911
1910
1913
1909
1911
1914
1909
1914
1911
1913
1915
1919
1919
1921
1923
1925
1923
1924
1921
1923
1919
1919
1915
1914
1914
1911
1908
1907
1904
1899
1901
1903
1902
1898
1895
1893
1890
1890
1889
1887
1886
1885
1883
1886
1887
1892
1893
1893
1897
1898
1898
1899
1899
1899
1899
1904
1904
1906
1906
1904
1904
1904
1897
1898
1898
1891
1890
1885
1883
1878
1879
1876
1877
1878
1881
1881
1879
1885
1886
1889
1891
1895
1899
1898
1899
1901
1899
1899
1901
1897
1894
1899
1897
1895
1898
1897
1893
1889
1885
1875
1875
1874
1873
1872
1880
1883
1889
1887
1889
1895
1891
1893
1899
1894
1894
1891
1889
1887
1889
1888
1889
1888
1891
1891
1894
1897
1898
1899
1899
1902
1903
1902
1904
1903
1904
1901
1899
1899
1898
1897
1896
1896
1902
1903
1904
1907
1909
1911
1914
1917
1917
1916
1917
1917
1915
1918
1919
1923
1926
1927
1930
1930
1934
1930
1931
1923
1920
1917
1917
1914
1916
1915
1914
1917
1909
1909
1908
1904
1904
1901
1903
1901
1901
1902
1903
1903
1903
1904
1905
1907
1909
1906
1906
1904
1902
1899
1899
1898
1894
1891
1889
1889
1889
1887
1884
1887
1886
1886
1889
1890
1894
1897
1899
1900
1903
1903
1904
1905
1906
1906
1907
1909
1910
1913
1912
1911
1911
1907
1907
1907
1905
1904
1902
1895
1893
1899
1891
1892
1893
1895
1894
1893
1895
1897
1897
1902
1904
1899
1899
1899
1901
1901
1902
1899
1901
1899
1899
1899
1901
1901
1903
1904
1904
1911
1910
1918
1918
1922
1925
1930
1931
1933
1937
1939
1949
1951
1955
1961
1961
1967
1967
1968
1968
1968
1973
1979
1982
1982
1981
1983
1979
1979
1975
1974
1977
1980
1987
1998
2003
2031
2047
2078
2094
2112
2128
2143
2148
2153
2156
2150
2147
2141
2130
2125
2114
2111
2101
2095
2086
2074
2065
2061
2045
2037
2028
2022
2013
2003
2000
1990
1983
1975
1968
1955
1945
1936
1933
1925
1923
1921
1917
1915
1910
1905
1904
1899
1889
1882
1876
1871
1866
1861
1859
1856
1856
1854
1854
1856
1854
1855
1855
1851
1854
1853
1855
1855
1853
1852
1850
1846
1845
1840
1840
1839
1840
1840
1845
1850
1850
1853
1853
1855
1854
1855
1856
1856
1859
1865
1866
1870
1872
1877
1879
1879
1879
1883
1883
1884
1887
1883
1879
1870
1861
1846
1830
1814
1796
1781
1770
1767
1766
1771
1782
1803
1827
1857
1890
1931
1971
2022
2077
2133
2199
2271
2342
2415
2487
2559
2643
2719
2783
2843
2895
2939
2991
3025
3071
3119
3163
3207
3255
3295
3327
3347
3351
3327
3291
3235
3167
3071
2987
2895
2805
2719
2639
2559
2497
2447
2403
2375
2355
2340
2326
2319
2307
2298
2282
2259
2239
2217
2193
2166
2137
2107
2077
2045
2021
1997
1981
1968
1953
1941
1931
1923
1915
1904
1894
1883
1872
1865
1857
1851
1843
1839
1835
1830
1827
1823
1823
1815
1812
1808
1806
1803
1795
1792
1790
1787
1785
1782
1785
1789
1791
1792
1794
1803
1803
1805
1806
1807
1808
1807
1807
1806
1808
1804
1802
1803
1803
1808
1804
1804
1803
1801
1801
1802
1806
1805
1808
1808
1809
1813
1817
1823
1824
1826
1823
1833
1838
1840
1841
1840
1839
1840
1839
1837
1837
1835
1837
1839
1836
1839
1836
1838
1838
1840
1841
1847
1851
1856
1855
1856
1855
1855
1853
1851
1850
1851
1854
1851
1856
1856
1857
1860
1862
1861
1859
1861
1861
1857
1857
1857
1859
1858
1860
1862
1863
1867
1870
1872
1873
1876
1882
1885
1888
1894
1893
1895
1895
1894
1893
1894
1894
1895
1892
1894
1894
1891
1891
1895
1894
1898
1902
1904
1905
1914
1917
1919
1926
1925
1929
1929
1927
1931
1936
1933
1932
1931
1933
1934
1936
1938
1943
1946
1954
1957
1966
1968
1971
1986
1990
1997
2003
2010
2017
2019
2023
2025
2028
2031
2032
2032
2032
2037
2038
2044
2047
2055
2064
2066
2076
2078
2095
2099
2111
2116
2126
2129
2138
2149
2154
2161
2167
2175
2178
2183
2186
2189
2189
2191
2192
2193
2197
2199
2203
2201
2207
2214
2218
2224
2229
2238
2243
2246
2255
2257
2263
2271
2274
2278
2281
2286
2287
2293
2299
2299
2303
2308
2309
2311
2311
2311
2314
2311
2307
2303
2299
2293
2288
2283
2275
2261
2253
2240
2229
2215
2203
2191
2177
2164
2151
2137
2125
2112
2099
2089
2075
2064
2045
2035
2029
2016
2001
1995
1983
1973
1967
1959
1949
1936
1933
1920
1911
1904
1895
1887
1879
1872
1869
1863
1855
1851
1845
1840
1838
1831
1831
1830
1827
1824
1821
1818
1814
1815
1818
1819
1822
1822
1822
1821
1819
1815
1814
1809
1806
1803
1798
1797
1795
1796
1797
1798
1803
1803
1808
1808
1808
1808
1808
1809
1808
1805
1803
1794
1794
1792
1795
1798
1795
1802
1803
1804
1806
1808
1805
1808
1806
1806
1803
1803
1799
1796
1797
1795
1798
1798
1799
1798
1798
1799
1799
1798
1799
1799
1799
1803
1806
1808
1809
1812
1814
1815
1815
1815
1816
1813
1819
1813
1813
1811
1810
1808
1808
1807
1807
1804
1803
1806
1805
1805
1806
1807
1808
1808
1809
1813
1818
1819
1822
1822
1823
1824
1824
1827
1827
1827
1827
1827
1829
1829
1831
1831
1834
1835
1839
1841
1843
1847
1851
1852
1856
1856
1857
1859
1862
1861
1861
1857
1856
1856
1857
1855
1855
1856
1853
1856
1853
1853
1851
1853
1857
1858
1859
1865
1870
1871
1872
1874
1875
1873
1872
1872
1870
1871
1872
1870
1867
1869
1865
1861
1859
1854
1854
1855
1856
1859
1863
1866
1872
1872
1872
1872
1877
1878
1877
1877
1878
1879
1878
1875
1874
1873
1874
1874
1874
1877
1877
1879
1883
1885
1884
1886
1883
1882
1882
1878
1881
1879
1881
1886
1882
1887
1888
1892
1891
1897
1902
1904
1905
1904
1909
1907
1911
1915
1914
1911
1914
1911
1914
1914
1910
1914
1916
1915
1915
1918
1915
1914
1910
1906
1904
1903
1899
1895
1891
1892
1888
1890
1891
1891
1893
1895
1898
1901
1902
1901
1900
1901
1903
1904
1904
1905
1907
1910
1913
1915
1915
1919
1923
1931
1933
1936
1943
1949
1949
1951
1951
1952
1953
1953
1955
1953
1953
1954
1954
1950
1951
1946
1939
1937
1934
1933
1931
1934
1936
1936
1938
1939
1936
1936
1934
1932
1931
1931
1931
1934
1933
1935
1936
1936
1936
1936
1939
1937
1939
1941
1941
1940
1943
1947
1949
1949
1949
1949
1945
1943
1943
1945
1945
1942
1945
1943
1947
1947
1946
1945
1946
1946
1947
1949
1950
1949
1949
1945
1943
1949
1947
1948
1952
1954
1954
1959
1962
1961
1965
1963
1963
1965
1959
1954
1956
1955
1953
1959
1955
1956
1955
1958
1959
1962
1968
1968
1971
1974
1979
1978
1982
1983
1983
1986
1984
1986
1987
1991
1989
1991
1998
1994
1998
1998
1996
1998
1999
2001
2002
2003
2005
2006
2010
2007
2009
2005
2006
2006
2007
2007
2009
2011
2013
2015
2017
2019
2019
2023
2028
2027
2028
2026
2026
2027
2025
2020
2018
2015
2011
2003
1999
1995
1987
1981
1978
1970
1970
1969
1970
1971
1974
1978
1982
1983
1989
1995
1997
1998
1996
1991
1994
1990
1985
1983
1977
1969
1971
1968
1965
1965
1959
1958
1961
1959
1961
1961
1963
1964
1965
1968
1968
1968
1971
1971
1970
1971
1971
1971
1971
1973
1969
1975
1968
1968
1968
1968
1968
1968
1971
1973
1978
1979
1983
1985
1986
1989
1991
1995
1999
2001
2007
2015
2020
2029
2034
2043
2047
2059
2063
2064
2064
2065
2063
2058
2045
2038
2032
2029
2019
2016
2018
2020
2026
2037
2055
2071
2091
2107
2129
2149
2163
2178
2191
2192
2192
2192
2185
2179
2171
2163
2159
2147
2141
2130
2128
2117
2110
2097
2093
2078
2064
2059
2044
2033
2029
2021
2005
2000
1993
1986
1981
1979
1977
1978
1977
1978
1979
1973
1973
1968
1961
1953
1942
1934
1924
1915
1906
1903
1901
1894
1895
1898
1899
1903
1904
1905
1907
1913
1910
1909
1906
1904
1903
1898
1895
1891
1890
1893
1893
1893
1893
1894
1893
1891
1891
1891
1890
1885
1887
1886
1887
1888
1887
1889
1895
1892
1898
1897
1895
1898
1901
1902
1904
1904
1904
1904
1903
1894
1882
1867
1850
1826
1808
1790
1776
1773
1773
1776
1787
1803
1819
1845
1872
1906
1941
1985
2032
2095
2151
2222
2295
2371
2459
2542
2625
2703
2775
2839
2899
2949
2993
3039
3071
3123
3163
3199
3247
3282
3306
3295
3275
3223
3159
3071
2991
2897
2805
2718
2626
2543
2470
2403
2351
2309
2275
2251
2235
2226
2223
2221
2215
2214
2207
2197
2179
2162
2143
2119
2098
2075
2041
2015
1986
1963
1936
1917
1898
1882
1873
1866
1861
1855
1852
1843
1840
1831
1825
1822
1812
1812
1808
1804
1799
1796
1791
1786
1785
1783
1785
1782
1789
1790
1792
1794
1797
1794
1797
1793
1792
1790
1789
1786
1786
1782
1783
1784
1782
1785
1783
1789
1783
1781
1782
1781
1781
1779
1778
1778
1776
1779
1776
1776
1776
1776
1777
1779
1778
1787
1789
1790
1790
1791
1792
1795
1798
1802
1806
1803
1806
1807
1808
1808
1811
1815
1819
1818
1819
1823
1825
1825
1827
1825
1827
1824
1821
1823
1821
1818
1819
1821
1821
1819
1822
1823
1819
1824
1826
1831
1835
1838
1845
1851
1856
1856
1857
1858
1859
1859
1861
1857
1859
1861
1863
1865
1865
1866
1867
1869
1867
1871
1870
1869
1865
1865
1862
1859
1862
1862
1861
1864
1866
1871
1872
1879
1885
1891
1895
1901
1904
1906
1915
1919
1923
1927
1935
1937
1938
1940
1942
1942
1939
1937
1936
1939
1939
1941
1939
1946
1951
1953
1958
1963
1963
1969
1978
1981
1984
1985
1991
1997
1998
2003
2002
2004
2015
2014
2015
2019
2022
2023
2027
2031
2032
2034
2039
2047
2063
2069
2081
2095
2103
2112
2123
2128
2139
2144
2150
2157
2158
2160
2160
2161
2164
2170
2174
2178
2178
2189
2194
2204
2209
2223
2224
2227
2233
2238
2239
2242
2242
2247
2249
2254
2255
2256
2257
2257
2263
2261
2266
2265
2269
2273
2275
2276
2282
2283
2285
2285
2287
2287
2289
2288
2287
2287
2281
2279
2274
2267
2257
2256
2245
2234
2224
2217
2207
2195
2189
2175
2165
2153
2140
2129
2117
2102
2093
2079
2065
2047
2035
2031
2021
2013
2006
2001
1999
1995
1988
1983
1977
1973
1968
1968
1965
1961
1954
1949
1946
1941
1936
1933
1933
1927
1921
1920
1918
1918
1911
1908
1905
1901
1901
1898
1897
1898
1898
1897
1897
1895
1895
1898
1899
1899
1902
1904
1903
1903
1905
1905
1907
1908
1907
1910
1904
1905
1905
1904
1903
1903
1904
1902
1898
1898
1897
1895
1893
1895
1897
1895
1895
1904
1904
1904
1904
1904
1904
1904
1904
1904
1903
1903
1903
1902
1904
1903
1903
1904
1904
1904
1908
1907
1911
1911
1915
1910
1914
1909
1910
1910
1913
1914
1919
1921
1924
1929
1930
1935
1934
1935
1933
1930
1930
1929
1924
1926
1926
1924
1934
1937
1939
1941
1949
1949
1951
1950
1949
1951
1950
1949
1949
1951
1952
1948
1953
1953
1953
1952
1951
1954
1953
1951
1951
1952
1951
1949
1945
1941
1942
1938
1936
1937
1936
1936
1935
1931
1932
1933
1934
1931
1935
1933
1933
1934
1935
1936
1936
1936
1944
1942
1946
1951
1955
1959
1968
1971
1975
1975
1979
1979
1979
1979
1975
1975
1970
1969
1967
1962
1956
1953
1947
1946
1940
1939
1938
1937
1938
1938
1939
1939
1937
1935
1931
1931
1924
1925
1927
1925
1922
1922
1919
1921
1923
1920
1921
1919
1919
1920
1920
1925
1925
1925
1927
1931
1931
1931
1931
1927
1927
1927
1923
1923
1919
1917
1919
1911
1909
1909
1909
1906
1910
1911
1914
1913
1914
1911
1915
1915
1916
1919
1919
1923
1929
1927
1929
1929
1926
1926
1925
1927
1927
1926
1931
1930
1934
1931
1933
1932
1931
1931
1930
1926
1922
1921
1919
1918
1919
1919
1919
1921
1923
1925
1930
1926
1931
1927
1929
1927
1927
1922
1917
1914
1911
1907
1906
1904
1904
1902
1900
1897
1894
1894
1891
1891
1891
1891
1893
1891
1893
1895
1891
1894
1893
1891
1891
1889
1889
1887
1887
1887
1888
1895
1889
1895
1894
1893
1894
1890
1889
1887
1883
1877
1875
1874
1873
1874
1875
1872
1873
1874
1872
1872
1875
1875
1873
1873
1873
1873
1873
1872
1872
1871
1871
1871
1871
1866
1869
1867
1866
1869
1869
1869
1873
1866
1867
1866
1858
1862
1859
1856
1856
1856
1856
1856
1856
1855
1856
1855
1853
1853
1854
1850
1846
1843
1841
1841
1841
1841
1840
1840
1840
1839
1840
1840
1840
1840
1840
1836
1835
1834
1835
1834
1831
1831
1834
1833
1837
1837
1840
1840
1842
1842
1843
1842
1842
1843
1842
1840
1840
1840
1840
1840
1840
1840
1839
1838
1839
1840
1840
1835
1834
1825
1828
1829
1829
1830
1831
1835
1840
1840
1840
1843
1842
1843
1845
1850
1855
1854
1856
1856
1856
1854
1855
1851
1851
1849
1851
1849
1850
1851
1855
1856
1857
1866
1859
1863
1863
1867
1871
1870
1870
1869
1867
1869
1868
1871
1870
1867
1869
1872
1872
1872
1877
1878
1885
1886
1889
1891
1894
1897
1901
1901
1904
1906
1909
1917
1917
1920
1925
1931
1934
1936
1938
1942
1947
1951
1954
1959
1967
1970
1977
1984
1987
1991
1995
1999
2000
2000
2001
2001
2003
2000
2000
2000
2001
2003
2007
2017
2021
2032
2044
2064
2077
2092
2107
2117
2127
2129
2131
2128
2126
2115
2107
2099
2091
2079
2067
2061
2046
2035
2032
2023
2017
2013
2005
1999
1991
1988
1983
1981
1978
1967
1958
1953
1943
1936
1934
1927
1923
1919
1917
1916
1914
1910
1907
1904
1892
1882
1873
1871
1862
1857
1852
1850
1849
1846
1843
1843
1840
1840
1837
1831
1827
1824
1818
1811
1807
1803
1802
1802
1799
1803
1807
1809
1813
1821
1825
1828
1827
1829
1828
1826
1820
1819
1815
1813
1818
1818
1818
1821
1824
1826
1825
1826
1823
1823
1823
1822
1821
1819
1817
1811
1808
1799
1783
1767
1745
1728
1708
1689
1680
1675
1676
1681
1695
1713
1739
1772
1805
1843
1882
1934
1983
2043
2112
2185
2263
2347
2427
2507
2589
2659
2727
2787
2843
2891
2939
2979
3023
3059
3103
3151
3190
3217
3228
3221
3187
3139
3063
2987
2899
2815
2725
2635
2546
2469
2397
2335
2286
2241
2208
2191
2176
2173
2167
2171
2171
2171
2162
2157
2139
2119
2099
2075
2047
2021
1993
1959
1925
1898
1870
1843
1826
1814
1806
1805
1793
1789
1785
1783
1778
1776
1770
1765
1758
1747
1741
1731
1722
1715
1712
1712
1712
1713
1712
1716
1719
1725
1726
1730
1734
1739
1742
1743
1744
1744
1744
1745
1749
1747
1753
1751
1751
1751
1751
1753
1753
1751
1750
1749
1750
1752
1752
1753
1753
1754
1754
1751
1751
1750
1748
1747
1750
1753
1756
1754
1754
1752
1752
1750
1745
1747
1747
1746
1746
1746
1747
1746
1746
1744
1742
1744
1744
1737
1738
1734
1734
1729
1728
1727
1728
1729
1728
1728
1731
1735
1739
1743
1745
1751
1758
1762
1765
1769
1775
1774
1776
1776
1777
1778
1781
1779
1779
1785
1787
1789
1792
1792
1797
1801
1806
1808
1807
1808
1809
1811
1818
1822
1825
1829
1834
1837
1835
1840
1839
1840
1840
1841
1843
1849
1846
1850
1856
1857
1857
1862
1865
1866
1866
1863
1863
1862
1865
1867
1869
1872
1873
1879
1882
1883
1886
1889
1893
1895
1904
1911
1918
1921
1930
1933
1936
1941
1947
1951
1955
1958
1965
1968
1969
1977
1982
1985
1993
1995
1999
2001
2005
2011
2014
2017
2019
2022
2029
2032
2034
2043
2046
2058
2063
2066
2071
2078
2085
2091
2095
2099
2103
2109
2112
2117
2124
2129
2133
2138
2143
2151
2157
2161
2165
2169
2163
2167
2167
2166
2171
2171
2171
2175
2178
2182
2181
2191
2193
2199
2208
2218
2224
2230
2237
2241
2247
2243
2243
2243
2239
2234
2231
2224
2225
2223
2215
2210
2207
2195
2192
2186
2181
2174
2167
2160
2150
2141
2128
2117
2103
2091
2077
2063
2045
2032
2019
2005
1999
1987
1977
1969
1962
1955
1946
1936
1930
1923
1919
1916
1908
1905
1903
1895
1888
1884
1877
1872
1866
1859
1854
1841
1839
1828
1826
1819
1815
1814
1817
1814
1819
1821
1821
1818
1815
1816
1817
1818
1815
1811
1814
1815
1815
1816
1816
1810
1808
1808
1808
1808
1808
1807
1808
1808
1810
1813
1814
1819
1821
1824
1824
1825
1825
1826
1826
1827
1831
1834
1836
1837
1840
1840
1845
1850
1851
1855
1859
1862
1869
1872
1872
1873
1872
1870
1877
1878
1877
1878
1880
1880
1879
1882
1882
1882
1885
1879
1881
1885
1884
1882
1887
1887
1888
1889
1889
1891
1890
1893
1893
1893
1896
1899
1899
1903
1903
1904
1905
1907
1907
1908
1907
1906
1906
1905
1907
1905
1905
1905
1906
1907
1911
1918
1918
1923
1923
1927
1931
1930
1933
1936
1932
1936
1936
1936
1936
1938
1936
1936
1937
1937
1938
1936
1936
1936
1930
1931
1925
1930
1931
1931
1931
1931
1935
1935
1936
1935
1932
1930
1930
1930
1927
1930
1930
1926
1928
1926
1922
1923
1922
1921
1921
1923
1923
1921
1921
1922
1919
1920
1916
1913
1909
1911
1910
1913
1918
1919
1921
1922
1927
1932
1934
1936
1930
1935
1931
1933
1925
1923
1921
1921
1922
1919
1925
1927
1931
1931
1936
1935
1935
1931
1932
1933
1927
1927
1929
1927
1925
1922
1925
1922
1924
1929
1927
1930
1930
1926
1924
1920
1917
1913
1913
1911
1911
1911
1914
1911
1915
1910
1910
1909
1904
1904
1902
1899
1895
1897
1893
1893
1893
1894
1897
1898
1898
1898
1898
1895
1898
1892
1899
1898
1901
1901
1902
1904
1907
1906
1909
1907
1907
1905
1906
1908
1912
1911
1914
1917
1919
1918
1918
1921
1921
1921
1921
1922
1925
1923
1923
1926
1923
1926
1924
1921
1920
1920
1920
1919
1922
1925
1925
1927
1925
1931
1930
1933
1936
1936
1937
1937
1938
1939
1938
1935
1934
1927
1923
1921
1921
1921
1920
1918
1918
1919
1920
1923
1926
1930
1934
1936
1936
1937
1936
1936
1936
1936
1936
1931
1929
1929
1927
1927
1927
1927
1930
1931
1932
1935
1931
1933
1931
1934
1935
1933
1933
1933
1929
1931
1929
1927
1931
1929
1933
1933
1934
1930
1927
1922
1921
1918
1921
1918
1915
1911
1911
1907
1911
1911
1917
1920
1923
1931
1936
1941
1945
1949
1953
1952
1953
1953
1943
1942
1941
1939
1937
1932
1936
1933
1933
1930
1926
1927
1930
1926
1920
1921
1920
1920
1925
1921
1923
1922
1936
1936
1936
1936
1938
1939
1941
1943
1943
1938
1942
1936
1931
1927
1923
1922
1920
1919
1918
1920
1920
1923
1921
1922
1923
1921
1920
1917
1914
1911
1907
1904
1903
1902
1902
1903
1904
1904
1905
1908
1909
1909
1910
1919
1918
1920
1917
1923
1923
1923
1927
1927
1930
1930
1929
1925
1926
1922
1919
1919
1914
1909
1905
1913
1904
1904
1904
1904
1906
1911
1918
1921
1922
1923
1923
1923
1923
1923
1918
1918
1911
1910
1907
1906
1904
1904
1905
1907
1907
1905
1907
1907
1910
1909
1910
1909
1910
1911
1904
1904
1904
1904
1903
1904
1907
1908
1914
1921
1927
1936
1941
1950
1957
1962
1968
1971
1980
1987
1994
2000
2012
2017
2027
2031
2034
2037
2036
2032
2031
2027
2023
2016
2015
2013
2013
2014
2019
2019
2031
2037
2059
2075
2090
2107
2123
2139
2151
2160
2167
2171
2171
2171
2165
2160
2157
2151
2140
2132
2128
2123
2118
2114
2111
2103
2096
2090
2085
2078
2074
2067
2064
2059
2047
2039
2032
2026
2017
2007
2000
1997
1995
1989
1987
1985
1982
1975
1971
1966
1957
1947
1935
1921
1911
1898
1887
1877
1873
1873
1872
1874
1882
1884
1886
1887
1886
1883
1879
1874
1871
1866
1857
1855
1850
1847
1846
1849
1847
1846
1850
1849
1846
1849
1849
1846
1849
1846
1846
1843
1842
1845
1849
1851
1855
1856
1856
1856
1857
1858
1859
1859
1867
1867
1867
1863
1859
1847
1834
1819
1796
1776
1752
1734
1725
1723
1725
1737
1751
1775
1803
1838
1875
1919
1963
2007
2068
2127
2191
2263
2335
2417
2495
2559
2659
2731
2794
2847
2899
2947
2993
3035
3071
3127
3171
3219
3263
3301
3323
3319
3295
3253
3195
3123
3039
2958
2863
2771
2687
2608
2529
2469
2414
2369
2338
2315
2299
2288
2277
2263
2256
2246
2234
2214
2191
2169
2139
2112
2081
2042
2011
1982
1951
1934
1909
1899
1886
1877
1871
1865
1856
1849
1841
1835
1827
1819
1810
1808
1798
1792
1783
1779
1776
1770
1763
1758
1757
1753
1754
1760
1755
1765
1766
1772
1773
1772
1775
1774
1773
1770
1766
1767
1763
1762
1758
1754
1751
1746
1744
1744
1743
1744
1744
1747
1751
1756
1758
1760
1766
1763
1760
1761
1763
1757
1756
1753
1751
1753
1757
1759
1761
1761
1765
1768
1770
1771
1774
1775
1776
1777
1776
1776
1781
1781
1782
1781
1778
1776
1776
1776
1775
1774
1771
1770
1769
1766
1762
1762
1760
1762
1764
1765
1771
1776
1777
1787
1791
1794
1797
1799
1804
1801
1806
1808
1806
1808
1808
1809
1809
1808
1810
1811
1811
1814
1818
1820
1823
1823
1827
1831
1830
1835
1837
1835
1838
1839
1840
1840
1839
1837
1840
1840
1840
1840
1840
1840
1845
1847
1847
1850
1851
1852
1852
1856
1858
1859
1863
1865
1870
1872
1875
1878
1881
1882
1885
1885
1881
1879
1882
1889
1893
1904
1910
1918
1929
1937
1942
1954
1959
1965
1968
1973
1978
1984
1986
1994
1997
2000
1999
2000
2000
2002
2001
2004
2010
2012
2016
2023
2031
2035
2043
2055
2064
2066
2075
2082
2093
2096
2103
2115
2127
2129
2143
2143
2151
2157
2158
2158
2162
2162
2165
2169
2175
2176
2181
2187
2191
2193
2195
2198
2203
2209
2213
2215
2215
2221
2223
2230
2235
2243
2251
2256
2259
2263
2270
2271
2275
2278
2278
2278
2273
2273
2269
2263
2259
2255
2250
2242
2231
2222
2207
2193
2182
2173
2160
2143
2128
2115
2102
2092
2079
2067
2059
2043
2034
2025
2011
2004
1998
1985
1978
1968
1957
1947
1937
1927
1920
1910
1904
1899
1888
1883
1873
1869
1863
1863
1856
1853
1850
1847
1846
1838
1840
1840
1838
1836
1833
1829
1824
1819
1817
1815
1811
1810
1808
1808
1807
1808
1808
1807
1806
1808
1806
1808
1808
1810
1812
1810
1808
1806
1802
1797
1795
1791
1788
1789
1787
1781
1779
1776
1777
1778
1779
1776
1778
1781
1780
1783
1787
1791
1792
1801
1806
1808
1812
1819
1824
1831
1835
1840
1844
1849
1851
1854
1854
1855
1855
1855
1856
1855
1856
1856
1857
1858
1858
1858
1859
1866
1870
1871
1872
1872
1873
1873
1873
1874
1874
1875
1873
1872
1872
1872
1875
1876
1879
1885
1887
1891
1895
1898
1901
1899
1899
1899
1895
1898
1895
1895
1893
1898
1897
1897
1900
1901
1904
1904
1904
1906
1909
1913
1913
1911
1916
1920
1920
1921
1919
1919
1917
1914
1910
1915
1909
1909
1908
1907
1909
1908
1907
1904
1905
1904
1904
1903
1903
1903
1904
1904
1904
1909
1909
1911
1914
1911
1915
1919
1913
1910
1910
1913
1914
1917
1914
1913
1915
1916
1911
1914
1915
1914
1911
1909
1907
1906
1906
1908
1907
1908
1906
1905
1905
1904
1904
1907
1906
1909
1912
1913
1911
1910
1910
1911
1913
1914
1909
1906
1906
1905
1901
1904
1904
1904
1908
1909
1911
1910
1910
1911
1911
1906
1904
1904
1903
1899
1895
1894
1894
1893
1890
1893
1898
1903
1908
1911
1919
1925
1930
1933
1937
1938
1939
1939
1941
1939
1936
1927
1920
1916
1905
1901
1901
1899
1899
1899
1901
1904
1904
1906
1906
1913
1911
1915
1919
1920
1923
1923
1925
1926
1925
1925
1923
1921
1920
1926
1921
1920
1920
1919
1919
1917
1917
1911
1917
1914
1917
1918
1921
1921
1921
1923
1923
1922
1922
1923
1922
1921
1921
1920
1920
1919
1919
1919
1919
1921
1923
1925
1927
1930
1931
1929
1931
1928
1929
1926
1925
1927
1921
1922
1919
1918
1914
1911
1908
1909
1909
1915
1914
1919
1921
1926
1933
1937
1945
1953
1962
1968
1972
1982
1983
1983
1983
1979
1975
1970
1966
1958
1953
1955
1947
1943
1941
1945
1947
1946
1950
1950
1956
1959
1963
1962
1960
1957
1955
1953
1951
1955
1953
1955
1958
1958
1959
1962
1965
1967
1967
1968
1965
1967
1966
1955
1955
1947
1942
1941
1939
1939
1939
1939
1941
1943
1942
1941
1943
1947
1951
1951
1951
1952
1954
1953
1955
1953
1951
1954
1950
1951
1954
1954
1954
1959
1959
1963
1963
1963
1965
1965
1959
1963
1959
1955
1955
1955
1951
1951
1951
1947
1948
1948
1945
1947
1942
1939
1939
1938
1936
1936
1935
1930
1925
1921
1918
1911
1907
1904
1901
1899
1891
1888
1885
1879
1877
1877
1878
1877
1881
1877
1877
1874
1872
1870
1867
1858
1856
1847
1838
1833
1829
1827
1818
1818
1813
1813
1818
1811
1810
1810
1810
1805
1807
1798
1802
1796
1794
1794
1795
1794
1792
1793
1792
1788
1789
1786
1785
1787
1783
1789
1787
1780
1780
1776
1774
1771
1765
1761
1761
1759
1761
1761
1765
1762
1766
1762
1761
1761
1758
1755
1755
1753
1754
1753
1752
1753
1753
1754
1755
1750
1754
1756
1757
1761
1763
1765
1767
1767
1765
1769
1766
1764
1762
1759
1756
1754
1748
1749
1747
1746
1750
1753
1756
1766
1775
1787
1801
1818
1839
1857
1872
1893
1904
1907
1913
1914
1909
1904
1898
1888
1876
1869
1859
1850
1840
1833
1822
1810
1805
1796
1789
1779
1776
1773
1765
1761
1757
1750
1746
1734
1728
1717
1712
1709
1703
1699
1700
1696
1697
1698
1693
1690
1683
1679
1673
1667
1658
1652
1648
1638
1630
1625
1618
1613
1609
1603
1600
1596
1594
1587
1584
1582
1579
1576
1576
1573
1571
1577
1578
1579
1580
1585
1584
1584
1581
1578
1572
1568
1567
1561
1557
1557
1557
1555
1555
1561
1562
1562
1565
1568
1571
1578
1581
1585
1591
1600
1602
1606
1607
1604
1596
1584
1566
1535
1519
1495
1479
1472
1472
1477
1488
1502
1528
1558
1590
1621
1666
1709
1760
1811
1873
1937
2011
2096
2179
2265
2343
2418
2491
2558
2620
2672
2719
2759
2798
2833
2867
2903
2943
2981
3007
3023
3010
2975
2919
2849
2769
2687
2602
2507
2417
2337
2256
2187
2127
2075
2029
1998
1973
1957
1947
1942
1938
1934
1931
1923
1913
1902
1890
1875
1862
1847
1835
1813
1793
1766
1740
1712
1685
1663
1638
1623
1612
1603
1600
1600
1600
1600
1601
1600
1600
1595
1595
1592
1588
1584
1575
1570
1562
1556
1535
1535
1535
1532
1531
1534
1527
1526
1527
1526
1525
1527
1528
1525
1524
1525
1527
1530
1532
1533
1534
1535
1532
1533
1532
1535
1534
1535
1535
1535
1555
1559
1566
1569
1574
1575
1579
1576
1574
1574
1568
1567
1562
1558
1566
1558
1559
1558
1558
1564
1563
1568
1568
1568
1569
1568
1571
1570
1574
1577
1582
1584
1585
1588
1594
1598
1600
1602
1605
1605
1604
1602
1601
1600
1600
1599
1600
1602
1602
1613
1616
1621
1631
1642
1648
1653
1662
1666
1666
1664
1670
1669
1666
1661
1662
1657
1655
1654
1655
1661
1665
1673
1679
1683
1693
1703
1711
1714
1719
1728
1731
1737
1741
1742
1742
1742
1742
1739
1741
1738
1742
1739
1741
1743
1744
1744
1748
1751
1755
1759
1764
1774
1776
1785
1792
1797
1804
1806
1809
1810
1809
1809
1808
1808
1808
1808
1808
1810
1814
1818
1823
1829
1835
1839
1843
1852
1856
1863
1869
1871
1873
1872
1875
1875
1879
1875
1887
1891
1897
1904
1913
1919
1927
1939
1942
1947
1954
1956
1959
1961
1963
1968
1969
1974
1983
1989
1995
1999
2004
2006
2015
2018
2027
2033
2039
2047
2061
2067
2071
2082
2087
2093
2099
2107
2111
2113
2115
2118
2122
2125
2128
2129
2131
2133
2134
2139
2139
2143
2145
2143
2145
2147
2149
2145
2144
2141
2135
2131
2127
2122
2114
2106
2099
2091
2083
2070
2062
2045
2037
2030
2016
2002
1997
1984
1974
1964
1956
1942
1935
1922
1916
1905
1898
1890
1883
1877
1872
1872
1865
1858
1855
1845
1840
1834
1827
1821
1811
1808
1806
1801
1799
1798
1799
1794
1794
1794
1797
1792
1791
1791
1789
1787
1786
1782
1781
1778
1776
1776
1775
1775
1774
1772
1773
1775
1774
1772
1776
1776
1776
1778
1778
1776
1776
1776
1775
1775
1776
1777
1779
1778
1778
1776
1777
1776
1776
1777
1777
1779
1780
1779
1781
1783
1783
1782
1776
1777
1776
1775
1772
1767
1769
1764
1762
1761
1759
1760
1763
1760
1767
1766
1767
1772
1773
1775
1774
1773
1774
1769
1767
1765
1763
1760
1761
1762
1762
1770
1771
1778
1783
1790
1793
1796
1794
1797
1794
1794
1793
1792
1792
1795
1796
1798
1799
1803
1806
1808
1808
1810
1808
1809
1809
1810
1809
1809
1811
1814
1817
1821
1824
1826
1827
1831
1837
1839
1840
1841
1840
1841
1840
1840
1837
1834
1829
1826
1822
1823
1821
1821
1822
1824
1826
1829
1831
1837
1838
1840
1840
1840
1842
1841
1845
1844
1842
1842
1843
1842
1842
1844
1847
1853
1854
1856
1856
1861
1860
1859
1859
1856
1855
1854
1854
1854
1855
1854
1853
1855
1850
1853
1851
1851
1853
1850
1850
1847
1850
1847
1841
1840
1840
1838
1837
1833
1829
1830
1830
1827
1831
1838
1840
1840
1841
1847
1853
1856
1861
1865
1871
1875
1877
1879
1884
1886
1887
1885
1883
1882
1877
1877
1873
1872
1872
1872
1872
1871
1870
1869
1866
1865
1861
1860
1861
1861
1862
1861
1862
1865
1866
1869
1865
1872
1871
1872
1872
1873
1872
1873
1877
1877
1880
1877
1878
1878
1878
1881
1877
1875
1880
1879
1879
1880
1883
1879
1881
1883
1878
1878
1877
1877
1877
1878
1876
1875
1872
1872
1868
1867
1861
1859
1861
1858
1866
1866
1869
1870
1872
1874
1877
1877
1874
1873
1872
1871
1869
1863
1858
1857
1855
1856
1859
1858
1858
1861
1861
1869
1872
1869
1878
1881
1882
1883
1885
1886
1888
1888
1889
1889
1889
1886
1883
1877
1875
1874
1872
1872
1867
1865
1863
1862
1859
1857
1857
1858
1856
1856
1854
1854
1852
1851
1847
1846
1847
1843
1841
1839
1840
1840
1840
1840
1840
1841
1843
1849
1851
1856
1859
1866
1872
1878
1881
1887
1889
1892
1889
1887
1883
1873
1872
1873
1871
1865
1861
1860
1861
1862
1867
1870
1871
1873
1876
1879
1882
1885
1887
1886
1888
1890
1890
1891
1895
1889
1883
1879
1873
1872
1870
1867
1870
1872
1875
1879
1883
1885
1891
1895
1899
1903
1904
1907
1910
1915
1915
1914
1914
1911
1911
1914
1909
1907
1906
1904
1909
1910
1907
1910
1906
1904
1904
1904
1901
1900
1899
1899
1901
1903
1901
1904
1904
1905
1904
1904
1907
1910
1909
1910
1911
1913
1916
1915
1916
1917
1919
1917
1919
1917
1919
1915
1909
1907
1904
1904
1903
1899
1901
1899
1895
1893
1890
1888
1882
1878
1876
1873
1872
1872
1872
1872
1872
1872
1872
1872
1873
1879
1886
1890
1899
1903
1905
1906
1910
1908
1910
1909
1905
1904
1904
1904
1904
1904
1904
1907
1909
1918
1920
1925
1931
1936
1939
1943
1949
1950
1952
1955
1957
1957
1957
1954
1952
1951
1949
1948
1947
1949
1951
1960
1969
1984
1997
2010
2029
2055
2076
2095
2112
2127
2135
2143
2147
2147
2143
2141
2135
2129
2122
2112
2103
2097
2089
2081
2071
2064
2057
2043
2033
2027
2021
2006
2003
1997
1989
1980
1970
1962
1952
1943
1936
1927
1925
1918
1916
1911
1907
1904
1899
1893
1885
1878
1872
1867
1858
1854
1843
1840
1837
1831
1827
1827
1825
1825
1824
1821
1819
1818
1817
1818
1817
1815
1813
1811
1811
1808
1809
1811
1810
1810
1811
1812
1814
1814
1811
1811
1814
1814
1810
1815
1815
1815
1817
1818
1816
1818
1813
1818
1822
1823
1824
1824
1825
1827
1827
1828
1824
1821
1810
1798
1785
1761
1751
1739
1735
1729
1741
1751
1767
1782
1808
1838
1868
1903
1937
1981
2031
2091
2154
2224
2303
2375
2458
2539
2614
2687
2759
2823
2879
2931
2982
3025
3067
3109
3147
3187
3229
3263
3271
3259
3223
3175
3107
3025
2943
2863
2773
2687
2607
2519
2448
2388
2339
2293
2263
2241
2235
2225
2224
2223
2223
2215
2205
2191
2173
2150
2125
2097
2078
2046
2016
1987
1959
1934
1911
1898
1884
1872
1869
1861
1855
1843
1839
1829
1822
1811
1806
1799
1796
1790
1786
1776
1775
1766
1760
1751
1747
1744
1745
1744
1744
1744
1741
1740
1740
1742
1739
1744
1742
1746
1747
1748
1750
1749
1748
1747
1745
1744
1744
1744
1742
1741
1739
1738
1741
1744
1745
1750
1756
1762
1767
1774
1776
1783
1787
1791
1793
1794
1794
1792
1791
1791
1790
1787
1776
1778
1776
1776
1777
1776
1776
1779
1786
1786
1792
1795
1803
1805
1809
1811
1813
1814
1809
1805
1816
1817
1814
1814
1811
1809
1811
1808
1808
1808
1808
1807
1802
1799
1799
1797
1796
1797
1798
1801
1799
1803
1799
1805
1807
1808
1808
1811
1813
1815
1819
1824
1826
1829
1835
1837
1839
1839
1837
1837
1837
1830
1827
1824
1822
1819
1819
1820
1819
1824
1824
1825
1823
1825
1824
1826
1830
1835
1840
1840
1849
1855
1861
1868
1871
1872
1879
1886
1893
1900
1904
1910
1915
1919
1923
1926
1934
1936
1942
1948
1950
1952
1954
1959
1962
1961
1964
1966
1968
1971
1975
1982
1985
1991
1996
2003
2015
2023
2032
2035
2044
2047
2063
2065
2070
2075
2079
2085
2089
2093
2096
2101
2106
2112
2115
2124
2128
2130
2135
2145
2151
2159
2163
2171
2179
2187
2194
2205
2210
2219
2224
2230
2235
2237
2239
2240
2240
2240
2239
2239
2238
2242
2245
2253
2257
2266
2271
2282
2288
2290
2291
2291
2291
2293
2294
2294
2289
2288
2285
2275
2267
2256
2249
2235
2224
2213
2206
2192
2183
2172
2160
2154
2143
2128
2112
2109
2096
2083
2073
2062
2043
2032
2022
2011
2005
2000
1989
1982
1969
1961
1952
1943
1936
1921
1919
1911
1904
1898
1889
1884
1879
1872
1870
1868
1869
1863
1861
1857
1855
1851
1853
1847
1841
1840
1840
1837
1838
1837
1835
1835
1837
1839
1840
1841
1840
1841
1840
1840
1839
1835
1829
1829
1828
1829
1829
1827
1827
1827
1826
1823
1821
1823
1822
1822
1824
1823
1823
1822
1821
1820
1817
1814
1809
1812
1813
1810
1811
1809
1811
1811
1809
1810
1814
1817
1818
1822
1822
1823
1824
1825
1829
1825
1822
1822
1818
1814
1812
1811
1808
1809
1808
1810
1811
1817
1818
1817
1821
1823
1824
1827
1831
1834
1835
1838
1840
1840
1840
1840
1841
1840
1838
1836
1839
1838
1840
1840
1843
1842
1846
1847
1851
1854
1855
1855
1858
1857
1858
1857
1857
1856
1857
1857
1856
1855
1851
1847
1849
1847
1842
1847
1846
1851
1854
1856
1856
1858
1860
1859
1862
1867
1871
1872
1872
1871
1871
1870
1871
1871
1872
1872
1872
1871
1869
1866
1869
1872
1871
1872
1874
1877
1878
1881
1885
1890
1893
1899
1898
1902
1904
1907
1909
1915
1915
1915
1917
1918
1915
1917
1914
1914
1915
1917
1917
1920
1919
1922
1922
1920
1921
1919
1919
1918
1917
1908
1919
1919
1918
1918
1919
1911
1908
1910
1913
1912
1914
1914
1914
1915
1911
1908
1911
1909
1910
1911
1913
1915
1919
1917
1919
1922
1919
1918
1919
1918
1918
1920
1922
1925
1934
1936
1941
1943
1949
1951
1952
1953
1954
1957
1959
1963
1966
1968
1968
1968
1968
1968
1968
1969
1968
1968
1967
1967
1968
1963
1968
1968
1968
1971
1969
1969
1968
1967
1964
1959
1962
1956
1954
1953
1947
1947
1948
1947
1947
1950
1950
1951
1953
1955
1957
1958
1961
1958
1965
1966
1966
1965
1966
1965
1968
1966
1968
1967
1968
1968
1968
1969
1973
1974
1975
1973
1972
1971
1970
1969
1970
1969
1968
1967
1968
1968
1971
1973
1973
1979
1984
1985
1984
1983
1984
1984
1983
1985
1984
1983
1985
1987
1989
1989
1986
1987
1991
1989
1987
1987
1984
1983
1981
1983
1979
1979
1979
1975
1975
1979
1975
1979
1981
1983
1983
1989
1996
1999
2000
2002
2005
2007
2007
2005
2000
2000
1995
1989
1985
1983
1983
1984
1986
1989
1995
1999
2000
1999
1997
1997
1995
1994
1993
1990
1994
1991
1995
2000
2001
2002
2004
2007
2010
2013
2013
2011
2011
2005
2006
2000
2000
1999
1995
2000
2000
1998
2001
2003
2006
2007
2010
2014
2017
2021
2020
2019
2019
2015
2015
2015
2017
2017
2019
2019
2022
2030
2025
2029
2028
2029
2027
2027
2029
2031
2032
2034
2037
2033
2032
2031
2025
2018
2011
2001
2000
1991
1985
1979
1981
1978
1981
1981
1985
1991
1999
2000
2007
2009
2010
2010
2010
2007
2005
2002
2000
1995
1995
1991
1986
1987
1995
1991
1987
1989
1993
1991
1990
1993
1990
1987
1986
1983
1982
1975
1970
1969
1970
1973
1979
1981
1983
1985
1989
1993
1996
1994
1991
1993
1991
1989
1990
1988
1985
1989
1991
1991
1995
1996
1997
2000
2000
2003
2007
2015
2021
2032
2035
2042
2046
2047
2055
2061
2063
2065
2069
2077
2083
2087
2093
2095
2096
2097
2096
2096
2096
2095
2095
2095
2097
2095
2097
2098
2107
2113
2128
2144
2161
2183
2199
2224
2245
2256
2263
2272
2271
2267
2266
2257
2250
2243
2231
2223
2213
2203
2195
2192
2181
2174
2165
2158
2151
2145
2139
2131
2129
2125
2115
2110
2103
2094
2083
2075
2065
2063
2059
2055
2047
2047
2045
2045
2035
2032
2027
2017
2007
1999
1990
1981
1968
1959
1950
1941
1939
1939
1942
1939
1945
1945
1951
1954
1953
1951
1949
1947
1943
1942
1939
1936
1934
1936
1933
1931
1936
1937
1937
1940
1939
1936
1936
1936
1936
1936
1936
1936
1936
1936
1938
1938
1940
1941
1945
1947
1949
1949
1949
1949
1950
1947
1942
1935
1920
1905
1888
1870
1855
1851
1846
1851
1861
1872
1887
1906
1936
1968
2004
2047
2099
2151
2207
2271
2347
2416
2491
2559
2655
2731
2803
2867
2923
2971
3019
3062
3111
3154
3199
3247
3295
3343
3389
3423
3431
3423
3391
3343
3275
3190
3103
3006
2911
2823
2737
2655
2587
2517
2463
2419
2386
2370
2351
2340
2323
2315
2299
2285
2261
2239
2215
2190
2160
2128
2097
2070
2039
2017
1999
1983
1968
1953
1943
1933
1923
1913
1903
1891
1878
1870
1857
1844
1834
1819
1808
1799
1792
1780
1776
1776
1775
1774
1775
1776
1777
1781
1789
1789
1791
1791
1793
1793
1792
1794
1795
1795
1795
1795
1795
1793
1798
1802
1806
1808
1808
1808
1808
1807
1806
1805
1804
1801
1802
1798
1799
1797
1801
1806
1807
1808
1809
1811
1811
1811
1814
1813
1817
1817
1819
1823
1825
1826
1826
1822
1830
1827
1835
1829
1835
1834
1831
1831
1833
1833
1834
1834
1837
1838
1837
1840
1840
1838
1838
1839
1840
1840
1840
1840
1840
1840
1842
1840
1840
1841
1841
1840
1840
1845
1845
1844
1849
1851
1856
1856
1856
1861
1862
1867
1866
1870
1869
1872
1873
1877
1883
1887
1889
1894
1897
1901
1904
1905
1904
1907
1910
1907
1910
1911
1915
1915
1918
1923
1927
1929
1933
1935
1936
1936
1936
1936
1936
1936
1936
1939
1939
1937
1942
1945
1949
1947
1949
1949
1946
1943
1943
1943
1943
1947
1947
1951
1956
1961
1965
1969
1975
1974
1984
1990
1995
2000
2006
2019
2029
2032
2042
2057
2065
2071
2079
2089
2093
2096
2099
2102
2106
2106
2107
2111
2113
2115
2124
2127
2131
2139
2147
2151
2160
2167
2173
2178
2182
2192
2194
2199
2207
2214
2219
2224
2227
2231
2239
2245
2251
2255
2257
2261
2267
2267
2271
2275
2279
2278
2287
2288
2289
2301
2303
2303
2311
2317
2319
2319
2319
2320
2319
2320
2309
2303
2299
2288
2279
2270
2257
2245
2235
2218
2206
2194
2187
2173
2160
2147
2133
2128
2117
2112
2101
2095
2087
2079
2069
2064
2047
2039
2029
2015
2001
1989
1979
1968
1958
1947
1936
1929
1920
1915
1911
1904
1901
1893
1890
1881
1877
1872
1863
1859
1856
1854
1853
1855
1854
1856
1857
1859
1865
1866
1868
1865
1863
1863
1858
1856
1851
1849
1849
1846
1842
1845
1845
1849
1847
1851
1850
1849
1853
1850
1850
1847
1847
1845
1842
1840
1839
1835
1837
1830
1830
1833
1833
1827
1833
1834
1838
1837
1840
1840
1843
1848
1850
1855
1857
1856
1856
1858
1859
1858
1858
1858
1859
1857
1855
1856
1856
1856
1855
1855
1855
1852
1847
1846
1846
1845
1844
1843
1840
1840
1840
1841
1845
1844
1851
1853
1857
1862
1870
1873
1873
1873
1874
1874
1876
1877
1874
1875
1875
1874
1875
1874
1872
1872
1869
1866
1860
1861
1865
1863
1865
1870
1872
1872
1872
1873
1878
1879
1875
1877
1878
1882
1882
1883
1886
1883
1880
1877
1875
1866
1861
1855
1849
1843
1842
1840
1840
1840
1840
1842
1843
1846
1847
1849
1852
1851
1851
1852
1851
1854
1855
1858
1861
1863
1871
1872
1874
1872
1872
1872
1871
1869
1867
1862
1860
1858
1857
1858
1858
1858
1856
1856
1862
1863
1865
1870
1871
1871
1870
1867
1866
1865
1866
1863
1859
1857
1857
1857
1858
1857
1860
1862
1862
1863
1865
1867
1869
1871
1871
1872
1872
1874
1876
1875
1877
1881
1881
1887
1887
1890
1893
1892
1891
1891
1890
1888
1886
1879
1875
1872
1874
1875
1878
1882
1886
1888
1893
1895
1899
1899
1901
1902
1901
1902
1902
1899
1902
1904
1902
1899
1897
1901
1901
1903
1901
1904
1904
1905
1909
1914
1919
1922
1925
1931
1933
1934
1932
1933
1927
1924
1922
1920
1920
1920
1920
1923
1925
1931
1935
1938
1943
1950
1958
1963
1964
1965
1962
1957
1951
1943
1937
1932
1924
1921
1918
1914
1909
1915
1919
1923
1927
1930
1936
1937
1942
1943
1950
1951
1953
1955
1956
1953
1951
1953
1951
1951
1953
1952
1953
1951
1951
1949
1949
1947
1945
1943
1943
1941
1941
1936
1937
1936
1936
1933
1936
1934
1933
1931
1927
1927
1930
1930
1932
1933
1936
1936
1937
1941
1945
1943
1950
1955
1956
1956
1956
1957
1955
1955
1951
1951
1947
1946
1943
1938
1937
1936
1931
1926
1923
1919
1918
1918
1918
1919
1921
1925
1929
1933
1936
1937
1941
1950
1952
1955
1958
1960
1959
1961
1959
1955
1955
1954
1951
1951
1953
1957
1959
1958
1957
1951
1944
1936
1930
1922
1920
1915
1915
1915
1923
1929
1936
1940
1947
1954
1964
1968
1978
1979
1983
1984
1983
1983
1983
1982
1979
1978
1973
1972
1970
1968
1967
1967
1967
1966
1966
1968
1968
1970
1972
1975
1973
1975
1978
1980
1977
1978
1973
1973
1968
1970
1967
1965
1962
1962
1962
1964
1967
1973
1978
1983
1987
1994
2000
2000
2005
2006
2005
2005
2001
2000
2000
2000
2000
2000
1997
1997
1999
2002
2009
2012
2018
2019
2025
2029
2029
2030
2032
2030
2032
2032
2032
2031
2031
2034
2035
2037
2041
2045
2047
2047
2047
2047
2057
2055
2063
2070
2081
2094
2101
2111
2123
2129
2134
2139
2142
2141
2142
2139
2137
2134
2133
2129
2128
2128
2128
2130
2143
2152
2163
2181
2198
2219
2239
2256
2275
2293
2305
2317
2320
2329
2327
2326
2320
2311
2299
2288
2277
2263
2254
2243
2231
2226
2223
2221
2219
2217
2219
2219
2222
2223
2224
2223
2219
2215
2207
2196
2191
2180
2173
2162
2154
2145
2131
2123
2113
2107
2097
2096
2093
2091
2094
2093
2095
2093
2095
2093
2085
2085
2079
2071
2067
2062
2047
2042
2038
2033
2032
2034
2031
2034
2037
2043
2043
2039
2043
2044
2042
2043
2039
2042
2041
2039
2043
2043
2037
2043
2047
2047
2047
2047
2047
2047
2047
2047
2045
2043
2043
2035
2036
2034
2033
2031
2027
2014
2001
1986
1970
1958
1946
1939
1939
1942
1954
1967
1979
2000
2021
2055
2091
2129
2178
2231
2295
2366
2439
2522
2615
2703
2787
2867
2941
3007
3071
3135
3183
3231
3271
3311
3347
3391
3431
3477
3506
3509
3485
3437
3359
3275
3175
3071
2971
2875
2775
2693
2610
2527
2467
2417
2378
2348
2323
2313
2305
2303
2305
2303
2306
2306
2302
2291
2283
2267
2255
2235
2218
2193
2163
2135
2110
2079
2043
2021
2003
1986
1971
1968
1957
1957
1951
1951
1948
1943
1941
1936
1933
1925
1915
1904
1895
1887
1882
1875
1873
1872
1872
1873
1878
1888
1895
1898
1904
1904
1904
1905
1904
1903
1899
1898
1897
1893
1891
1890
1889
1890
1889
1889
1893
1893
1897
1888
1899
1901
1904
1905
1907
1907
1906
1904
1904
1899
1895
1898
1893
1891
1885
1885
1878
1878
1872
1872
1872
1872
1872
1870
1865
1862
1856
1855
1854
1851
1853
1854
1855
1856
1857
1862
1870
1871
1873
1877
1879
1883
1881
1887
1886
1885
1889
1888
1887
1886
1889
1887
1885
1886
1886
1885
1885
1887
1887
1885
1888
1887
1885
1880
1882
1883
1879
1881
1882
1881
1885
1885
1887
1887
1888
1891
1893
1893
1889
1893
1890
1890
1887
1885
1887
1885
1883
1879
1877
1875
1877
1883
1887
1902
1905
1918
1922
1926
1927
1930
1933
1933
1933
1932
1931
1926
1922
1919
1911
1910
1905
1904
1904
1904
1905
1910
1909
1922
1926
1934
1939
1947
1955
1961
1968
1972
1983
1986
1999
2001
2007
2013
2018
2025
2032
2037
2039
2047
2058
2059
2063
2062
2062
2064
2064
2061
2062
2062
2063
2064
2070
2077
2087
2095
2105
2112
2126
2131
2146
2157
2161
2173
2179
2181
2183
2183
2191
2189
2187
2183
2182
2177
2175
2177
2176
2178
2185
2191
2199
2207
2221
2224
2231
2239
2242
2245
2246
2246
2245
2245
2243
2239
2235
2227
2223
2220
2215
2210
2203
2197
2192
2183
2176
2169
2160
2158
2151
2143
2131
2126
2114
2103
2095
2080
2071
2063
2047
2041
2032
2023
2017
2012
2001
1999
1991
1983
1968
1953
1938
1926
1914
1903
1893
1889
1884
1882
1878
1879
1883
1882
1879
1875
1872
1867
1857
1859
1857
1855
1855
1854
1852
1851
1845
1847
1845
1840
1840
1839
1835
1838
1833
1830
1830
1827
1827
1826
1826
1825
1825
1825
1825
1825
1824
1824
1823
1823
1821
1821
1818
1815
1810
1808
1805
1801
1798
1792
1790
1789
1783
1781
1783
1785
1788
1789
1792
1794
1796
1802
1808
1808
1811
1815
1815
1818
1818
1814
1808
1808
1799
1795
1790
1787
1779
1778
1779
1779
1781
1783
1783
1786
1787
1790
1791
1794
1790
1789
1786
1783
1779
1777
1777
1778
1778
1783
1787
1794
1804
1806
1808
1811
1817
1822
1824
1828
1826
1826
1824
1823
1819
1818
1812
1811
1810
1808
1808
1809
1810
1813
1820
1826
1825
1825
1829
1831
1829
1829
1833
1833
1830
1829
1827
1823
1818
1814
1816
1813
1814
1814
1819
1818
1819
1815
1808
1812
1809
1806
1801
1799
1794
1794
1790
1787
1790
1793
1796
1805
1808
1814
1819
1823
1819
1815
1811
1808
1798
1793
1786
1782
1776
1776
1777
1777
1778
1779
1782
1782
1786
1791
1790
1791
1792
1793
1794
1799
1802
1802
1801
1802
1802
1807
1802
1798
1795
1792
1791
1790
1787
1785
1783
1783
1782
1782
1787
1789
1792
1792
1794
1795
1798
1795
1798
1802
1799
1801
1795
1797
1794
1793
1794
1792
1789
1791
1789
1786
1790
1789
1785
1783
1779
1782
1781
1780
1778
1779
1778
1781
1783
1787
1789
1791
1794
1795
1799
1803
1803
1805
1806
1803
1805
1801
1802
1803
1805
1805
1808
1809
1811
1815
1821
1824
1825
1829
1830
1821
1819
1811
1808
1808
1810
1812
1818
1823
1831
1834
1837
1839
1840
1840
1841
1844
1844
1842
1840
1839
1840
1838
1840
1842
1853
1856
1863
1870
1872
1873
1874
1872
1866
1857
1850
1841
1838
1839
1835
1841
1842
1845
1850
1850
1851
1853
1855
1854
1855
1856
1861
1857
1858
1860
1862
1863
1866
1871
1872
1875
1879
1883
1883
1880
1877
1879
1878
1883
1883
1886
1890
1894
1898
1903
1904
1904
1909
1914
1920
1925
1934
1936
1947
1949
1954
1963
1966
1970
1977
1981
1984
1983
1983
1977
1974
1970
1967
1957
1951
1941
1930
1920
1904
1893
1888
1878
1872
1872
1871
1865
1862
1858
1855
1855
1845
1842
1837
1830
1826
1819
1813
1810
1809
1808
1802
1794
1795
1794
1803
1802
1808
1812
1813
1820
1818
1817
1815
1815
1812
1815
1813
1811
1811
1817
1818
1825
1832
1834
1842
1847
1853
1856
1859
1870
1872
1879
1887
1899
1904
1910
1919
1924
1935
1937
1941
1946
1947
1950
1953
1952
1955
1955
1958
1961
1963
1968
1968
1970
1979
1983
1984
1985
1990
1998
1999
2003
2009
2015
2021
2021
2025
2027
2026
2026
2022
2021
2016
2010
2007
2001
2003
2006
2010
2019
2031
2055
2075
2099
2127
2156
2182
2203
2222
2235
2245
2251
2250
2245
2242
2238
2230
2225
2218
2210
2207
2202
2199
2199
2199
2197
2203
2197
2195
2191
2187
2182
2178
2174
2171
2159
2147
2135
2127
2115
2112
2107
2105
2111
2110
2112
2110
2112
2111
2111
2101
2093
2083
2073
2064
2047
2043
2033
2031
2026
2019
2016
2014
2011
2003
2001
1997
1995
1987
1984
1984
1982
1981
1973
1973
1972
1971
1969
1969
1969
1971
1973
1973
1969
1968
1965
1962
1957
1949
1942
1936
1931
1922
1921
1915
1913
1911
1911
1911
1917
1915
1920
1924
1925
1929
1929
1923
1911
1903
1883
1857
1833
1808
1792
1776
1769
1767
1773
1777
1790
1808
1831
1856
1894
1931
1978
2031
2094
2157
2225
2303
2384
2463
2541
2621
2698
2759
2815
2869
2915
2951
2987
3021
3055
3098
3135
3183
3216
3239
3235
3215
3167
3103
3022
2935
2843
2750
2655
2559
2475
2399
2331
2279
2238
2209
2190
2181
2179
2187
2191
2191
2195
2192
2192
2179
2163
2146
2125
2103
2076
2042
2018
1987
1962
1935
1909
1899
1886
1874
1870
1861
1857
1856
1853
1847
1843
1840
1839
1830
1819
1808
1796
1785
1776
1770
1765
1762
1757
1756
1758
1763
1774
1780
1787
1792
1801
1808
1809
1818
1821
1831
1830
1828
1827
1824
1815
1812
1805
1795
1787
1777
1767
1757
1749
1744
1739
1733
1731
1731
1730
1725
1731
1727
1726
1728
1730
1733
1734
1737
1738
1735
1737
1734
1734
1731
1731
1728
1726
1722
1714
1715
1712
1709
1706
1701
1697
1698
1696
1693
1697
1697
1702
1708
1712
1714
1719
1726
1729
1730
1731
1732
1730
1729
1728
1732
1733
1738
1741
1744
1744
1746
1745
1749
1754
1754
1755
1757
1754
1751
1747
1744
1744
1745
1749
1758
1769
1775
1777
1779
1787
1783
1781
1776
1772
1761
1753
1744
1733
1727
1722
1716
1712
1713
1714
1723
1728
1730
1740
1744
1757
1765
1776
1787
1795
1806
1814
1826
1834
1840
1845
1843
1844
1841
1840
1840
1838
1833
1822
1818
1820
1813
1811
1810
1813
1813
1816
1821
1821
1824
1829
1834
1840
1846
1853
1866
1877
1885
1899
1911
1927
1936
1943
1950
1954
1958
1965
1968
1968
1968
1968
1968
1965
1960
1958
1951
1947
1954
1962
1968
1979
1987
2000
2010
2025
2033
2044
2060
2064
2065
2065
2065
2066
2066
2064
2063
2063
2061
2061
2065
2067
2078
2081
2090
2096
2103
2112
2119
2128
2135
2146
2156
2160
2167
2174
2175
2174
2173
2162
2160
2150
2144
2134
2130
2127
2122
2117
2112
2106
2097
2091
2081
2065
2047
2038
2030
2016
2006
2000
1991
1986
1979
1967
1958
1951
1936
1932
1919
1904
1891
1877
1863
1854
1842
1839
1833
1827
1824
1822
1821
1815
1811
1809
1808
1811
1810
1809
1808
1808
1810
1805
1805
1797
1790
1785
1776
1769
1761
1753
1744
1741
1737
1735
1733
1741
1738
1741
1741
1741
1735
1730
1723
1717
1712
1709
1710
1712
1715
1728
1744
1760
1775
1791
1796
1802
1801
1798
1789
1776
1769
1762
1751
1743
1738
1731
1725
1720
1716
1712
