39
3505
3567
3631
3663
3663
3627
3563
3477
3379
3280
3175
3063
2963
2865
2779
2698
2627
2559
2514
2480
2455
2443
2429
2417
2406
2387
2371
2351
2320
2291
2259
2235
2206
2177
2155
2128
2109
2083
2063
2043
2023
2003
1986
1975
1963
1943
1930
1914
1900
1879
1866
1851
1841
1831
1824
1822
1820
1821
1819
1824
1823
1825
1825
1824
1822
1818
1811
1808
1799
1791
1783
1776
1775
1775
1776
1778
1780
1783
1790
1793
1797
1805
1801
1803
1799
1798
1794
1791
1783
1778
1776
1775
1771
1775
1774
1776
1781
1787
1792
1804
1808
1811
1816
1817
1815
1808
1809
1806
1805
1802
1802
1803
1805
1807
1809
1815
1819
1834
1838
1842
1853
1855
1858
1864
1862
1857
1856
1851
1853
1846
1841
1840
1840
1843
1845
1851
1855
1862
1869
1872
1877
1884
1886
1892
1888
1898
1897
1899
1902
1902
1902
1900
1902
1904
1906
1911
1919
1923
1930
1933
1936
1936
1937
1936
1936
1935
1934
1931
1926
1921
1918
1915
1913
1918
1923
1925
1936
1945
1954
1966
1971
1981
1983
1984
1984
1981
1979
1971
1969
1967
1964
1965
1968
1971
1981
1991
2000
2011
2021
2031
2037
2047
2045
2043
2037
2033
2027
2019
2016
2011
2009
2003
2006
2018
2022
2032
2045
2065
2079
2095
2105
2112
2126
2130
2133
2129
2137
2135
2133
2131
2129
2131
2130
2131
2139
2146
2158
2168
2182
2192
2203
2215
2223
2231
2241
2243
2250
2251
2255
2255
2252
2254
2256
2258
2258
2262
2269
2275
2283
2289
2295
2303
2313
2320
2330
2339
2343
2343
2346
2341
2334
2333
2335
2337
2342
2351
2359
2367
2377
2384
2390
2396
2394
2399
2397
2391
2385
2381
2368
2355
2346
2335
2323
2314
2306
2299
2294
2288
2283
2281
2274
2263
2257
2245
2233
2219
2203
2189
2173
2157
2146
2131
2123
2105
2099
2094
2086
2079
2075
2063
2064
2059
2046
2033
2026
2015
2004
1999
1985
1973
1968
1959
1952
1943
1938
1935
1936
1935
1931
1931
1931
1925
1925
1920
1920
1913
1907
1904
1899
1901
1899
1892
1894
1897
1899
1903
1904
1905
1907
1906
1911
1915
1906
1903
1899
1890
1889
1875
1872
1861
1857
1854
1846
1849
1847
1851
1853
1854
1855
1857
1858
1863
1865
1861
1859
1856
1853
1847
1841
1840
1838
1831
1830
1826
1826
1829
1831
1831
1835
1830
1824
1824
1818
1811
1808
1797
1791
1780
1776
1767
1760
1761
1761
1763
1770
1776
1782
1787
1797
1807
1809
1815
1817
1815
1815
1808
1804
1795
1786
1777
1770
1765
1757
1759
1751
1750
1754
1755
1759
1761
1765
1765
1759
1755
1747
1743
1734
1728
1722
1718
1714
1714
1715
1718
1723
1728
1732
1737
1743
1747
1751
1757
1755
1755
1747
1742
1734
1722
1715
1708
1702
1702
1701
1698
1699
1701
1707
1709
1712
1712
1721
1722
1722
1722
1717
1710
1696
1693
1683
1679
1674
1676
1674
1680
1681
1686
1695
1701
1710
1710
1712
1710
1710
1702
1695
1685
1680
1674
1671
1670
1671
1674
1675
1685
1696
1709
1714
1724
1729
1730
1730
1735
1727
1721
1710
1697
1681
1675
1664
1657
1652
1649
1644
1652
1661
1667
1678
1683
1692
1698
1703
1705
1710
1706
1700
1696
1686
1680
1675
1669
1668
1665
1671
1678
1680
1687
1698
1711
1717
1728
1738
1745
1746
1751
1748
1747
1744
1738
1734
1723
1717
1711
1701
1702
1701
1702
1705
1712
1712
1718
1726
1728
1734
1741
1744
1745
1746
1748
1749
1749
1753
1755
1760
1765
1773
1774
1780
1789
1792
1797
1802
1802
1804
1802
1802
1791
1785
1780
1775
1770
1761
1758
1755
1757
1758
1760
1766
1770
1776
1782
1786
1791
1793
1795
1794
1792
1792
1785
1790
1787
1787
1790
1795
1803
1807
1815
1822
1834
1840
1843
1849
1850
1851
1848
1847
1842
1837
1839
1831
1825
1823
1818
1813
1821
1824
1828
1837
1843
1847
1855
1859
1866
1872
1870
1865
1856
1853
1843
1845
1840
1840
1841
1843
1849
1854
1857
1863
1870
1872
1882
1887
1894
1897
1902
1901
1903
1904
1901
1901
1894
1891
1889
1887
1887
1891
1894
1902
1907
1921
1923
1933
1936
1936
1936
1936
1934
1931
1923
1920
1918
1918
1920
1926
1934
1939
1951
1963
1968
1971
1978
1980
1983
1982
1979
1975
1970
1968
1965
1955
1950
1946
1945
1942
1943
1949
1952
1957
1958
1968
1969
1974
1975
1979
1979
1972
1969
1967
1964
1949
1942
1936
1935
1931
1929
1932
1935
1939
1949
1952
1961
1967
1971
1982
1973
1972
1969
1968
1962
1955
1949
1943
1936
1932
1929
1920
1920
1922
1926
1931
1934
1937
1937
1941
1947
1950
1950
1943
1941
1936
1936
1936
1936
1936
1939
1946
1955
1963
1971
1981
1984
1989
1986
1988
1982
1981
1970
1966
1953
1941
1935
1921
1915
1917
1915
1918
1919
1929
1935
1945
1955
1965
1968
1971
1974
1973
1973
1971
1968
1963
1958
1953
1955
1955
1958
1964
1970
1979
1986
1999
2001
2011
2018
2017
2017
2014
2002
1996
1991
1983
1978
1970
1968
1967
1962
1965
1968
1970
1981
1987
1991
2001
2007
2015
2029
2025
2030
2023
2021
2019
2018
2015
2019
2023
2029
2035
2047
2064
2075
2085
2096
2096
2099
2098
2095
2091
2078
2067
2063
2059
2047
2047
2062
2066
2085
2105
2127
2160
2177
2205
2224
2243
2259
2270
2271
2273
2269
2259
2246
2235
2223
2211
2199
2191
2183
2180
2179
2181
2186
2187
2191
2192
2191
2182
2171
2162
2146
2128
2115
2096
2086
2067
2055
2041
2035
2033
2032
2032
2029
2029
2027
2021
2015
2005
1999
1987
1980
1968
1961
1950
1938
1934
1930
1927
1923
1931
1935
1938
1946
1952
1957
1957
1958
1952
1951
1946
1939
1936
1923
1920
1917
1911
1911
1908
1915
1924
1929
1936
1946
1952
1959
1968
1974
1977
1977
1972
1968
1965
1957
1950
1942
1936
1935
1933
1935
1934
1936
1934
1933
1927
1923
1908
1899
1883
1872
1861
1855
1851
1857
1863
1878
1891
1914
1938
1975
2003
2059
2107
2166
2231
2308
2387
2479
2559
2655
2741
2821
2895
2959
3023
3071
3127
3174
3215
3259
3307
3359
3415
3471
3519
3511
3479
3427
3347
3255
3159
3055
2955
2855
2747
2655
2559
2494
2435
2387
2352
2327
2314
2303
2299
2295
2289
2285
2271
2254
2230
2202
2175
2143
2111
2084
2055
2018
1986
1966
1939
1922
1906
1891
1879
1873
1869
1859
1852
1840
1829
1815
1802
1790
1778
1767
1755
1745
1740
1730
1726
1721
1718
1717
1717
1720
1721
1718
1718
1714
1711
1699
1698
1690
1675
1677
1674
1662
1658
1655
1655
1655
1659
1662
1666
1679
1682
1688
1693
1696
1698
1694
1688
1681
1677
1675
1664
1661
1657
1662
1668
1671
1680
1693
1698
1707
1710
1717
1716
1716
1715
1712
1710
1702
1703
1695
1695
1695
1699
1705
1712
1718
1729
1739
1747
1758
1763
1771
1771
1774
1766
1757
1747
1741
1727
1713
1702
1695
1691
1693
1691
1700
1702
1712
1722
1730
1738
1744
1747
1747
1746
1745
1745
1745
1744
1748
1747
1747
1750
1754
1757
1762
1770
1776
1785
1792
1796
1803
1807
1808
1809
1809
1808
1808
1808
1808
1810
1816
1819
1826
1833
1840
1845
1853
1859
1865
1869
1871
1870
1873
1872
1874
1875
1874
1875
1874
1877
1876
1883
1890
1901
1908
1921
1934
1941
1951
1962
1967
1968
1970
1968
1968
1965
1968
1961
1957
1962
1965
1968
1977
1983
1995
2005
2020
2031
2039
2057
2067
2075
2081
2077
2081
2078
2076
2077
2074
2073
2074
2079
2079
2090
2098
2110
2123
2131
2145
2159
2167
2173
2175
2175
2175
2176
2178
2179
2181
2187
2192
2197
2203
2212
2223
2234
2241
2255
2262
2267
2272
2277
2281
2283
2283
2283
2279
2279
2271
2267
2267
2263
2270
2273
2283
2288
2297
2301
2309
2311
2307
2307
2303
2294
2285
2265
2251
2231
2222
2202
2183
2174
2165
2161
2158
2154
2150
2143
2135
2129
2121
2111
2096
2085
2064
2047
2033
2014
2000
1985
1975
1965
1955
1953
1953
1947
1943
1941
1941
1936
1936
1933
1925
1921
1915
1904
1899
1889
1878
1872
1867
1861
1859
1856
1856
1858
1863
1869
1875
1879
1887
1891
1893
1887
1883
1879
1872
1870
1862
1857
1851
1849
1845
1846
1852
1856
1857
1862
1872
1874
1879
1882
1885
1883
1880
1873
1869
1863
1857
1851
1855
1855
1855
1856
1863
1870
1874
1887
1893
1903
1913
1914
1919
1921
1919
1918
1914
1906
1904
1899
1895
1891
1891
1895
1898
1903
1906
1911
1917
1919
1925
1931
1931
1933
1933
1931
1927
1926
1920
1917
1915
1915
1913
1919
1920
1925
1930
1937
1943
1952
1956
1959
1958
1957
1955
1953
1951
1952
1946
1945
1943
1941
1947
1955
1962
1968
1975
1982
1985
1994
1997
1997
1995
1989
1989
1985
1983
1975
1971
1968
1967
1962
1963
1967
1969
1974
1978
1991
1998
2005
2014
2019
2023
2023
2021
2026
2022
2017
2015
2007
2006
2006
2003
2007
2013
2020
2027
2031
2032
2035
2042
2047
2055
2047
2047
2035
2032
2031
2027
2027
2026
2031
2032
2037
2047
2063
2065
2069
2071
2076
2080
2081
2081
2082
2081
2073
2069
2064
2059
2059
2047
2047
2047
2057
2061
2067
2077
2086
2096
2099
2105
2110
2112
2112
2111
2107
2101
2097
2093
2091
2087
2085
2087
2087
2094
2096
2098
2101
2103
2103
2106
2107
2107
2106
2111
2099
2096
2093
2084
2080
2075
2077
2080
2079
2083
2087
2096
2098
2099
2107
2111
2110
2109
2106
2101
2096
2091
2090
2083
2081
2080
2083
2087
2094
2096
2101
2107
2111
2109
2111
2111
2107
2101
2096
2092
2083
2079
2066
2061
2047
2045
2045
2042
2047
2055
2063
2067
2077
2084
2094
2098
2099
2105
2106
2102
2097
2095
2087
2079
2074
2069
2065
2065
2066
2074
2075
2081
2087
2091
2094
2091
2085
2077
2067
2055
2046
2033
2032
2031
2029
2030
2032
2035
2037
2039
2046
2058
2061
2062
2063
2064
2063
2059
2055
2047
2035
2031
2027
2018
2010
2007
2003
2011
2015
2028
2032
2043
2059
2064
2068
2073
2074
2069
2063
2047
2042
2032
2027
2021
2017
2011
2009
2007
2007
2014
2018
2023
2031
2032
2035
2041
2047
2047
2047
2046
2046
2037
2033
2029
2023
2015
2015
2011
2015
2017
2017
2018
2025
2026
2032
2034
2037
2039
2035
2033
2027
2019
2013
2010
2006
2001
11:44:31.522 -> 2000
11:44:31.522 -> 1993
11:44:31.522 -> 1995
11:44:31.522 -> 1996
11:44:31.522 -> 1995
11:44:31.522 -> 2000
11:44:31.522 -> 2002
11:44:31.522 -> 2007
11:44:31.522 -> 2014
11:44:31.522 -> 2015
11:44:31.522 -> 2017
11:44:31.522 -> 2014
11:44:31.522 -> 2012
11:44:31.522 -> 2003
11:44:31.522 -> 2000
11:44:31.522 -> 1998
11:44:31.522 -> 1990
11:44:31.522 -> 1989
11:44:31.522 -> 1984
11:44:31.522 -> 1983
11:44:31.522 -> 1982
11:44:31.522 -> 1983
11:44:31.522 -> 1984
11:44:31.522 -> 1985
11:44:31.522 -> 1986
11:44:31.522 -> 1989
11:44:31.522 -> 1990
11:44:31.522 -> 1988
11:44:31.522 -> 1989
11:44:31.522 -> 1990
11:44:31.522 -> 1986
11:44:31.522 -> 1987
11:44:31.522 -> 1984
11:44:31.557 -> 1980
11:44:31.557 -> 1974
11:44:31.557 -> 1970
11:44:31.557 -> 1968
11:44:31.557 -> 1965
11:44:31.557 -> 1967
11:44:31.557 -> 1966
11:44:31.557 -> 1965
11:44:31.557 -> 1968
11:44:31.557 -> 1975
11:44:31.557 -> 1980
11:44:31.557 -> 1985
11:44:31.557 -> 2000
11:44:31.557 -> 2000
11:44:31.557 -> 2001
11:44:31.557 -> 2010
11:44:31.557 -> 2011
11:44:31.557 -> 2012
11:44:31.557 -> 2007
11:44:31.557 -> 2010
11:44:31.557 -> 2000
11:44:31.557 -> 1993
11:44:31.557 -> 1990
11:44:31.557 -> 1983
11:44:31.557 -> 1977
11:44:31.557 -> 1973
11:44:31.557 -> 1968
11:44:31.557 -> 1968
11:44:31.557 -> 1971
11:44:31.557 -> 1974
11:44:31.557 -> 1979
11:44:31.557 -> 1985
11:44:31.557 -> 1997
11:44:31.557 -> 2001
11:44:31.557 -> 2008
11:44:31.557 -> 2014
11:44:31.557 -> 2017
11:44:31.591 -> 2017
11:44:31.591 -> 2019
11:44:31.591 -> 2016
11:44:31.591 -> 2014
11:44:31.591 -> 2010
11:44:31.591 -> 2003
11:44:31.591 -> 2000
11:44:31.591 -> 1985
11:44:31.591 -> 1985
11:44:31.591 -> 1982
11:44:31.591 -> 1979
11:44:31.591 -> 1978
11:44:31.591 -> 1979
11:44:31.591 -> 1982
11:44:31.591 -> 1981
11:44:31.591 -> 1987
11:44:31.591 -> 1994
11:44:31.591 -> 1997
11:44:31.591 -> 2002
11:44:31.591 -> 2003
11:44:31.591 -> 2004
11:44:31.591 -> 2000
11:44:31.591 -> 2000
11:44:31.591 -> 1995
11:44:31.591 -> 1985
11:44:31.591 -> 1977
11:44:31.591 -> 1969
11:44:31.591 -> 1966
11:44:31.591 -> 1962
11:44:31.591 -> 1957
11:44:31.591 -> 1957
11:44:31.591 -> 1957
11:44:31.626 -> 1958
11:44:31.626 -> 1963
11:44:31.626 -> 1968
11:44:31.626 -> 1973
11:44:31.626 -> 1979
11:44:31.626 -> 1983
11:44:31.626 -> 1989
11:44:31.626 -> 1995
11:44:31.626 -> 1995
11:44:31.626 -> 1995
11:44:31.626 -> 1994
11:44:31.626 -> 1989
11:44:31.626 -> 1983
11:44:31.626 -> 1974
11:44:31.626 -> 1968
11:44:31.626 -> 1965
11:44:31.626 -> 1959
11:44:31.626 -> 1955
11:44:31.626 -> 1951
11:44:31.626 -> 1953
11:44:31.626 -> 1957
11:44:31.626 -> 1963
11:44:31.626 -> 1966
11:44:31.626 -> 1968
11:44:31.626 -> 1972
11:44:31.626 -> 1979
11:44:31.626 -> 1984
11:44:31.626 -> 1986
11:44:31.626 -> 1987
11:44:31.626 -> 1984
11:44:31.626 -> 1984
11:44:31.626 -> 1979
11:44:31.626 -> 1968
11:44:31.659 -> 1959
11:44:31.659 -> 1945
11:44:31.659 -> 1938
11:44:31.659 -> 1933
11:44:31.659 -> 1927
11:44:31.659 -> 1926
11:44:31.659 -> 1926
11:44:31.659 -> 1931
11:44:31.659 -> 1936
11:44:31.659 -> 1945
11:44:31.659 -> 1951
11:44:31.659 -> 1960
11:44:31.659 -> 1967
11:44:31.659 -> 1968
11:44:31.659 -> 1979
11:44:31.659 -> 1974
11:44:31.659 -> 1969
11:44:31.659 -> 1968
11:44:31.659 -> 1967
11:44:31.659 -> 1959
11:44:31.659 -> 1951
11:44:31.659 -> 1948
11:44:31.659 -> 1940
11:44:31.659 -> 1936
11:44:31.659 -> 1934
11:44:31.659 -> 1927
11:44:31.659 -> 1931
11:44:31.659 -> 1930
11:44:31.659 -> 1928
11:44:31.659 -> 1931
11:44:31.659 -> 1935
11:44:31.659 -> 1934
11:44:31.659 -> 1936
11:44:31.659 -> 1934
11:44:31.659 -> 1936
11:44:31.659 -> 1935
11:44:31.659 -> 1936
11:44:31.694 -> 1933
11:44:31.694 -> 1926
11:44:31.694 -> 1926
11:44:31.694 -> 1920
11:44:31.694 -> 1914
11:44:31.694 -> 1910
11:44:31.694 -> 1907
11:44:31.694 -> 1905
11:44:31.694 -> 1904
11:44:31.694 -> 1906
11:44:31.694 -> 1911
11:44:31.694 -> 1918
11:44:31.694 -> 1921
11:44:31.694 -> 1930
11:44:31.694 -> 1935
11:44:31.694 -> 1941
11:44:31.694 -> 1950
11:44:31.694 -> 1955
11:44:31.694 -> 1964
11:44:31.694 -> 1967
11:44:31.694 -> 1965
11:44:31.694 -> 1962
11:44:31.694 -> 1959
11:44:31.694 -> 1952
11:44:31.694 -> 1945
11:44:31.694 -> 1943
11:44:31.694 -> 1940
11:44:31.694 -> 1941
11:44:31.694 -> 1943
11:44:31.694 -> 1948
11:44:31.694 -> 1953
11:44:31.694 -> 1962
11:44:31.729 -> 1966
11:44:31.729 -> 1975
11:44:31.729 -> 1985
11:44:31.729 -> 1999
11:44:31.729 -> 2013
11:44:31.729 -> 2022
11:44:31.729 -> 2041
11:44:31.729 -> 2037
11:44:31.729 -> 2034
11:44:31.729 -> 2035
11:44:31.729 -> 2032
11:44:31.729 -> 2027
11:44:31.729 -> 2020
11:44:31.729 -> 2013
11:44:31.729 -> 2005
11:44:31.729 -> 2000
11:44:31.729 -> 1997
11:44:31.729 -> 1990
11:44:31.729 -> 1989
11:44:31.729 -> 1993
11:44:31.729 -> 1995
11:44:31.729 -> 1997
11:44:31.729 -> 2001
11:44:31.729 -> 2009
11:44:31.729 -> 2019
11:44:31.729 -> 2031
11:44:31.729 -> 2046
11:44:31.729 -> 2065
11:44:31.729 -> 2087
11:44:31.729 -> 2103
11:44:31.729 -> 2119
11:44:31.729 -> 2130
11:44:31.729 -> 2147
11:44:31.729 -> 2151
11:44:31.729 -> 2159
11:44:31.729 -> 2160
11:44:31.729 -> 2161
11:44:31.762 -> 2161
11:44:31.762 -> 2161
11:44:31.762 -> 2162
11:44:31.762 -> 2163
11:44:31.762 -> 2162
11:44:31.762 -> 2160
11:44:31.762 -> 2160
11:44:31.762 -> 2159
11:44:31.762 -> 2156
11:44:31.762 -> 2147
11:44:31.762 -> 2141
11:44:31.762 -> 2127
11:44:31.762 -> 2115
11:44:31.762 -> 2101
11:44:31.762 -> 2087
11:44:31.762 -> 2071
11:44:31.762 -> 2062
11:44:31.762 -> 2047
11:44:31.762 -> 2039
11:44:31.762 -> 2034
11:44:31.762 -> 2028
11:44:31.762 -> 2023
11:44:31.762 -> 2019
11:44:31.762 -> 2015
11:44:31.762 -> 2015
11:44:31.762 -> 2007
11:44:31.762 -> 2010
11:44:31.762 -> 2006
11:44:31.762 -> 2003
11:44:31.762 -> 2000
11:44:31.762 -> 2000
11:44:31.762 -> 1995
11:44:31.762 -> 1990
11:44:31.796 -> 1983
11:44:31.796 -> 1975
11:44:31.796 -> 1967
11:44:31.796 -> 1952
11:44:31.796 -> 1942
11:44:31.796 -> 1931
11:44:31.796 -> 1921
11:44:31.796 -> 1915
11:44:31.796 -> 1907
11:44:31.796 -> 1904
11:44:31.796 -> 1904
11:44:31.796 -> 1904
11:44:31.796 -> 1908
11:44:31.796 -> 1909
11:44:31.796 -> 1908
11:44:31.796 -> 1915
11:44:31.796 -> 1911
11:44:31.796 -> 1909
11:44:31.796 -> 1906
11:44:31.796 -> 1903
11:44:31.796 -> 1895
11:44:31.796 -> 1889
11:44:31.796 -> 1882
11:44:31.796 -> 1876
11:44:31.796 -> 1869
11:44:31.796 -> 1868
11:44:31.796 -> 1863
11:44:31.796 -> 1861
11:44:31.796 -> 1866
11:44:31.796 -> 1866
11:44:31.796 -> 1869
11:44:31.796 -> 1874
11:44:31.830 -> 1879
11:44:31.830 -> 1887
11:44:31.830 -> 1891
11:44:31.830 -> 1896
11:44:31.830 -> 1899
11:44:31.830 -> 1898
11:44:31.830 -> 1893
11:44:31.830 -> 1888
11:44:31.830 -> 1879
11:44:31.830 -> 1873
11:44:31.830 -> 1866
11:44:31.830 -> 1857
11:44:31.830 -> 1855
11:44:31.830 -> 1855
11:44:31.830 -> 1856
11:44:31.830 -> 1858
11:44:31.830 -> 1862
11:44:31.830 -> 1869
11:44:31.830 -> 1869
11:44:31.830 -> 1874
11:44:31.830 -> 1879
11:44:31.830 -> 1886
11:44:31.830 -> 1893
11:44:31.830 -> 1890
11:44:31.830 -> 1887
11:44:31.830 -> 1883
11:44:31.830 -> 1872
11:44:31.830 -> 1860
11:44:31.830 -> 1843
11:44:31.830 -> 1824
11:44:31.830 -> 1803
11:44:31.830 -> 1779
11:44:31.830 -> 1760
11:44:31.864 -> 1738
11:44:31.864 -> 1738
11:44:31.864 -> 1738
11:44:31.864 -> 1745
11:44:31.864 -> 1763
11:44:31.864 -> 1778
11:44:31.864 -> 1805
11:44:31.864 -> 1830
11:44:31.864 -> 1863
11:44:31.864 -> 1901
11:44:31.864 -> 1941
11:44:31.864 -> 1986
11:44:31.864 -> 2033
11:44:31.864 -> 2091
11:44:31.864 -> 2145
11:44:31.864 -> 2210
11:44:31.864 -> 2283
11:44:31.864 -> 2359
11:44:31.864 -> 2444
11:44:31.864 -> 2527
11:44:31.864 -> 2621
11:44:31.864 -> 2703
11:44:31.864 -> 2783
11:44:31.864 -> 2865
11:44:31.864 -> 2939
11:44:31.864 -> 3007
11:44:31.864 -> 3071
11:44:31.864 -> 3141
11:44:31.864 -> 3199
11:44:31.864 -> 3263
11:44:31.864 -> 3319
11:44:31.864 -> 3379
11:44:31.864 -> 3439
11:44:31.864 -> 3495
11:44:31.864 -> 3535
11:44:31.864 -> 3555
11:44:31.864 -> 3547
11:44:31.898 -> 3515
11:44:31.898 -> 3455
11:44:31.898 -> 3381
11:44:31.898 -> 3299
11:44:31.898 -> 3203
11:44:31.898 -> 3111
11:44:31.898 -> 3007
11:44:31.898 -> 2911
11:44:31.898 -> 2815
11:44:31.898 -> 2736
11:44:31.898 -> 2659
11:44:31.898 -> 2589
11:44:31.898 -> 2527
11:44:31.898 -> 2479
11:44:31.898 -> 2434
11:44:31.898 -> 2403
11:44:31.898 -> 2378
11:44:31.898 -> 2353
11:44:31.898 -> 2333
11:44:31.898 -> 2315
11:44:31.898 -> 2291
11:44:31.898 -> 2269
11:44:31.898 -> 2249
11:44:31.898 -> 2227
11:44:31.898 -> 2207
11:44:31.898 -> 2190
11:44:31.898 -> 2170
11:44:31.898 -> 2155
11:44:31.898 -> 2135
11:44:31.898 -> 2111
11:44:31.898 -> 2091
11:44:31.898 -> 2064
11:44:31.931 -> 2039
11:44:31.931 -> 2015
11:44:31.931 -> 2001
11:44:31.931 -> 1984
11:44:31.931 -> 1968
11:44:31.931 -> 1954
11:44:31.931 -> 1938
11:44:31.931 -> 1922
11:44:31.931 -> 1907
11:44:31.931 -> 1893
11:44:31.931 -> 1873
11:44:31.931 -> 1861
11:44:31.931 -> 1853
11:44:31.931 -> 1840
11:44:31.931 -> 1834
11:44:31.931 -> 1829
11:44:31.931 -> 1822
11:44:31.931 -> 1817
11:44:31.931 -> 1810
11:44:31.931 -> 1808
11:44:31.931 -> 1807
11:44:31.931 -> 1803
11:44:31.931 -> 1802
11:44:31.931 -> 1798
11:44:31.931 -> 1792
11:44:31.931 -> 1790
11:44:31.931 -> 1783
11:44:31.931 -> 1779
11:44:31.931 -> 1776
11:44:31.931 -> 1773
11:44:31.931 -> 1769
11:44:31.931 -> 1769
11:44:31.931 -> 1766
11:44:31.965 -> 1767
11:44:31.965 -> 1773
11:44:31.965 -> 1773
11:44:31.965 -> 1776
11:44:31.965 -> 1777
11:44:31.965 -> 1778
11:44:31.965 -> 1778
11:44:31.965 -> 1776
11:44:31.965 -> 1779
11:44:31.965 -> 1781
11:44:31.965 -> 1783
11:44:31.965 -> 1785
11:44:31.965 -> 1788
11:44:31.965 -> 1788
11:44:31.965 -> 1782
11:44:31.965 -> 1779
11:44:31.965 -> 1776
11:44:31.965 -> 1773
11:44:31.965 -> 1773
11:44:31.965 -> 1769
11:44:31.965 -> 1771
11:44:31.965 -> 1773
11:44:31.965 -> 1774
11:44:31.965 -> 1775
11:44:31.965 -> 1776
11:44:31.965 -> 1777
11:44:31.965 -> 1782
11:44:31.965 -> 1785
11:44:31.965 -> 1791
11:44:31.965 -> 1792
11:44:31.965 -> 1795
11:44:31.965 -> 1793
11:44:31.965 -> 1794
11:44:31.965 -> 1792
11:44:31.965 -> 1792
11:44:31.965 -> 1789
11:44:31.965 -> 1787
11:44:31.999 -> 1781
11:44:31.999 -> 1779
11:44:31.999 -> 1777
11:44:31.999 -> 1776
11:44:31.999 -> 1779
11:44:31.999 -> 1781
11:44:31.999 -> 1787
11:44:31.999 -> 1790
11:44:31.999 -> 1795
11:44:31.999 -> 1799
11:44:31.999 -> 1802
11:44:31.999 -> 1807
11:44:31.999 -> 1808
11:44:31.999 -> 1808
11:44:31.999 -> 1808
11:44:31.999 -> 1805
11:44:31.999 -> 1799
11:44:31.999 -> 1797
11:44:31.999 -> 1792
11:44:31.999 -> 1790
11:44:31.999 -> 1784
11:44:31.999 -> 1788
11:44:31.999 -> 1791
11:44:31.999 -> 1791
11:44:31.999 -> 1796
11:44:31.999 -> 1801
11:44:31.999 -> 1803
11:44:31.999 -> 1808
11:44:31.999 -> 1814
11:44:31.999 -> 1821
11:44:31.999 -> 1825
11:44:31.999 -> 1834
11:44:32.033 -> 1836
11:44:32.033 -> 1839
11:44:32.033 -> 1839
11:44:32.033 -> 1840
11:44:32.033 -> 1840
11:44:32.033 -> 1839
11:44:32.033 -> 1840
11:44:32.033 -> 1840
11:44:32.033 -> 1837
11:44:32.033 -> 1837
11:44:32.033 -> 1834
11:44:32.033 -> 1839
11:44:32.033 -> 1840
11:44:32.033 -> 1851
11:44:32.033 -> 1854
11:44:32.033 -> 1867
11:44:32.033 -> 1874
11:44:32.033 -> 1884
11:44:32.033 -> 1894
11:44:32.033 -> 1901
11:44:32.033 -> 1904
11:44:32.033 -> 1906
11:44:32.033 -> 1904
11:44:32.033 -> 1904
11:44:32.033 -> 1897
11:44:32.033 -> 1897
11:44:32.033 -> 1887
11:44:32.033 -> 1882
11:44:32.033 -> 1875
11:44:32.033 -> 1874
11:44:32.033 -> 1874
11:44:32.033 -> 1876
11:44:32.033 -> 1883
11:44:32.067 -> 1889
11:44:32.067 -> 1899
11:44:32.067 -> 1905
11:44:32.067 -> 1919
11:44:32.067 -> 1927
11:44:32.067 -> 1938
11:44:32.067 -> 1945
11:44:32.067 -> 1947
11:44:32.067 -> 1955
11:44:32.067 -> 1955
11:44:32.067 -> 1956
11:44:32.067 -> 1953
11:44:32.067 -> 1951
11:44:32.067 -> 1950
11:44:32.067 -> 1943
11:44:32.067 -> 1943
11:44:32.067 -> 1939
11:44:32.067 -> 1942
11:44:32.067 -> 1941
11:44:32.067 -> 1946
11:44:32.067 -> 1950
11:44:32.067 -> 1956
11:44:32.067 -> 1965
11:44:32.067 -> 1970
11:44:32.067 -> 1975
11:44:32.067 -> 1985
11:44:32.067 -> 1996
11:44:32.067 -> 2000
11:44:32.067 -> 2007
11:44:32.067 -> 2009
11:44:32.067 -> 2011
11:44:32.067 -> 2008
11:44:32.067 -> 2006
11:44:32.067 -> 2002
11:44:32.067 -> 1999
11:44:32.067 -> 1999
11:44:32.067 -> 1999
11:44:32.102 -> 1999
11:44:32.102 -> 2002
11:44:32.102 -> 2010
11:44:32.102 -> 2023
11:44:32.102 -> 2029
11:44:32.102 -> 2033
11:44:32.102 -> 2045
11:44:32.102 -> 2047
11:44:32.102 -> 2064
11:44:32.102 -> 2067
11:44:32.102 -> 2079
11:44:32.102 -> 2085
11:44:32.102 -> 2085
11:44:32.102 -> 2089
11:44:32.102 -> 2087
11:44:32.102 -> 2083
11:44:32.102 -> 2080
11:44:32.102 -> 2078
11:44:32.102 -> 2074
11:44:32.102 -> 2069
11:44:32.102 -> 2067
11:44:32.102 -> 2066
11:44:32.102 -> 2071
11:44:32.102 -> 2075
11:44:32.102 -> 2083
11:44:32.102 -> 2095
11:44:32.102 -> 2103
11:44:32.102 -> 2113
11:44:32.102 -> 2128
11:44:32.102 -> 2140
11:44:32.102 -> 2150
11:44:32.102 -> 2154
11:44:32.137 -> 2160
11:44:32.137 -> 2161
11:44:32.137 -> 2165
11:44:32.137 -> 2167
11:44:32.137 -> 2169
11:44:32.137 -> 2167
11:44:32.137 -> 2175
11:44:32.137 -> 2177
11:44:32.137 -> 2186
11:44:32.137 -> 2192
11:44:32.137 -> 2202
11:44:32.137 -> 2215
11:44:32.137 -> 2226
11:44:32.137 -> 2239
11:44:32.137 -> 2243
11:44:32.137 -> 2255
11:44:32.137 -> 2259
11:44:32.137 -> 2263
11:44:32.137 -> 2263
11:44:32.137 -> 2263
11:44:32.137 -> 2261
11:44:32.137 -> 2256
11:44:32.137 -> 2253
11:44:32.137 -> 2247
11:44:32.137 -> 2249
11:44:32.137 -> 2245
11:44:32.137 -> 2246
11:44:32.137 -> 2250
11:44:32.137 -> 2256
11:44:32.137 -> 2262
11:44:32.137 -> 2271
11:44:32.137 -> 2285
11:44:32.137 -> 2293
11:44:32.137 -> 2303
11:44:32.137 -> 2311
11:44:32.137 -> 2313
11:44:32.137 -> 2318
11:44:32.172 -> 2320
11:44:32.172 -> 2320
11:44:32.172 -> 2320
11:44:32.172 -> 2319
11:44:32.172 -> 2318
11:44:32.172 -> 2319
11:44:32.172 -> 2315
11:44:32.172 -> 2309
11:44:32.172 -> 2305
11:44:32.172 -> 2301
11:44:32.172 -> 2290
11:44:32.172 -> 2287
11:44:32.172 -> 2277
11:44:32.172 -> 2273
11:44:32.172 -> 2271
11:44:32.172 -> 2262
11:44:32.172 -> 2257
11:44:32.172 -> 2251
11:44:32.172 -> 2243
11:44:32.172 -> 2231
11:44:32.172 -> 2223
11:44:32.172 -> 2207
11:44:32.172 -> 2193
11:44:32.172 -> 2177
11:44:32.172 -> 2161
11:44:32.172 -> 2145
11:44:32.172 -> 2128
11:44:32.172 -> 2113
11:44:32.172 -> 2102
11:44:32.172 -> 2093
11:44:32.172 -> 2079
11:44:32.172 -> 2064
11:44:32.172 -> 2055
11:44:32.206 -> 2042
11:44:32.206 -> 2035
11:44:32.206 -> 2027
11:44:32.206 -> 2027
11:44:32.206 -> 2017
11:44:32.206 -> 2010
11:44:32.206 -> 2001
11:44:32.206 -> 1999
11:44:32.206 -> 1988
11:44:32.206 -> 1983
11:44:32.206 -> 1974
11:44:32.206 -> 1966
11:44:32.206 -> 1950
11:44:32.206 -> 1933
11:44:32.206 -> 1920
11:44:32.206 -> 1910
11:44:32.206 -> 1899
11:44:32.206 -> 1890
11:44:32.206 -> 1881
11:44:32.206 -> 1877
11:44:32.206 -> 1873
11:44:32.206 -> 1876
11:44:32.206 -> 1881
11:44:32.206 -> 1890
11:44:32.206 -> 1891
11:44:32.206 -> 1904
11:44:32.206 -> 1905
11:44:32.206 -> 1904
11:44:32.206 -> 1903
11:44:32.206 -> 1901
11:44:32.206 -> 1894
11:44:32.206 -> 1887
11:44:32.206 -> 1878
11:44:32.206 -> 1871
11:44:32.206 -> 1858
11:44:32.206 -> 1847
11:44:32.206 -> 1841
11:44:32.240 -> 1829
11:44:32.240 -> 1825
11:44:32.240 -> 1822
11:44:32.240 -> 1817
11:44:32.240 -> 1815
11:44:32.240 -> 1814
11:44:32.240 -> 1821
11:44:32.240 -> 1824
11:44:32.240 -> 1834
11:44:32.240 -> 1837
11:44:32.240 -> 1840
11:44:32.240 -> 1841
11:44:32.240 -> 1844
11:44:32.240 -> 1842
11:44:32.240 -> 1840
11:44:32.240 -> 1840
11:44:32.240 -> 1837
11:44:32.240 -> 1835
11:44:32.240 -> 1830
11:44:32.240 -> 1825
11:44:32.240 -> 1822
11:44:32.240 -> 1819
11:44:32.240 -> 1824
11:44:32.240 -> 1826
11:44:32.240 -> 1834
11:44:32.240 -> 1837
11:44:32.240 -> 1840
11:44:32.240 -> 1846
11:44:32.240 -> 1850
11:44:32.240 -> 1851
11:44:32.240 -> 1853
11:44:32.240 -> 1855
11:44:32.240 -> 1852
11:44:32.274 -> 1852
11:44:32.274 -> 1847
11:44:32.274 -> 1840
11:44:32.274 -> 1840
11:44:32.274 -> 1833
11:44:32.274 -> 1827
11:44:32.274 -> 1819
11:44:32.274 -> 1817
11:44:32.274 -> 1820
11:44:32.274 -> 1824
11:44:32.274 -> 1824
11:44:32.274 -> 1831
11:44:32.274 -> 1835
11:44:32.274 -> 1841
11:44:32.274 -> 1846
11:44:32.274 -> 1851
11:44:32.274 -> 1856
11:44:32.274 -> 1857
11:44:32.274 -> 1858
11:44:32.274 -> 1856
11:44:32.274 -> 1851
11:44:32.274 -> 1841
11:44:32.274 -> 1840
11:44:32.274 -> 1834
11:44:32.274 -> 1824
11:44:32.274 -> 1821
11:44:32.274 -> 1813
11:44:32.274 -> 1814
11:44:32.274 -> 1813
11:44:32.274 -> 1818
11:44:32.274 -> 1822
11:44:32.274 -> 1826
11:44:32.308 -> 1837
11:44:32.308 -> 1842
11:44:32.308 -> 1854
11:44:32.308 -> 1865
11:44:32.308 -> 1875
11:44:32.308 -> 1883
11:44:32.308 -> 1886
11:44:32.308 -> 1888
11:44:32.308 -> 1883
11:44:32.308 -> 1882
11:44:32.308 -> 1877
11:44:32.308 -> 1873
11:44:32.308 -> 1872
11:44:32.308 -> 1868
11:44:32.308 -> 1861
11:44:32.308 -> 1857
11:44:32.308 -> 1855
11:44:32.308 -> 1854
11:44:32.308 -> 1854
11:44:32.308 -> 1855
11:44:32.308 -> 1861
11:44:32.308 -> 1866
11:44:32.308 -> 1870
11:44:32.308 -> 1872
11:44:32.308 -> 1872
11:44:32.308 -> 1872
11:44:32.308 -> 1877
11:44:32.308 -> 1870
11:44:32.308 -> 1869
11:44:32.308 -> 1863
11:44:32.308 -> 1856
11:44:32.308 -> 1850
11:44:32.343 -> 1845
11:44:32.343 -> 1843
11:44:32.343 -> 1841
11:44:32.343 -> 1841
11:44:32.343 -> 1841
11:44:32.343 -> 1845
11:44:32.343 -> 1852
11:44:32.343 -> 1855
11:44:32.343 -> 1860
11:44:32.343 -> 1867
11:44:32.343 -> 1871
11:44:32.343 -> 1873
11:44:32.343 -> 1875
11:44:32.343 -> 1876
11:44:32.343 -> 1874
11:44:32.343 -> 1873
11:44:32.343 -> 1871
11:44:32.343 -> 1864
11:44:32.343 -> 1859
11:44:32.343 -> 1855
11:44:32.343 -> 1847
11:44:32.343 -> 1846
11:44:32.343 -> 1842
11:44:32.343 -> 1845
11:44:32.343 -> 1850
11:44:32.343 -> 1854
11:44:32.343 -> 1859
11:44:32.343 -> 1869
11:44:32.343 -> 1872
11:44:32.343 -> 1878
11:44:32.343 -> 1879
11:44:32.343 -> 1882
11:44:32.343 -> 1885
11:44:32.343 -> 1886
11:44:32.343 -> 1883
11:44:32.343 -> 1885
11:44:32.343 -> 1883
11:44:32.343 -> 1881
11:44:32.377 -> 1877
11:44:32.377 -> 1875
11:44:32.377 -> 1871
11:44:32.377 -> 1866
11:44:32.377 -> 1863
11:44:32.377 -> 1858
11:44:32.377 -> 1857
11:44:32.377 -> 1858
11:44:32.377 -> 1856
11:44:32.377 -> 1858
11:44:32.377 -> 1866
11:44:32.377 -> 1871
11:44:32.377 -> 1875
11:44:32.377 -> 1889
11:44:32.377 -> 1897
11:44:32.377 -> 1904
11:44:32.377 -> 1908
11:44:32.377 -> 1908
11:44:32.377 -> 1905
11:44:32.377 -> 1903
11:44:32.377 -> 1893
11:44:32.377 -> 1886
11:44:32.377 -> 1877
11:44:32.377 -> 1869
11:44:32.377 -> 1860
11:44:32.377 -> 1857
11:44:32.377 -> 1854
11:44:32.377 -> 1854
11:44:32.377 -> 1857
11:44:32.377 -> 1866
11:44:32.377 -> 1871
11:44:32.377 -> 1879
11:44:32.411 -> 1886
11:44:32.411 -> 1894
11:44:32.411 -> 1902
11:44:32.411 -> 1903
11:44:32.411 -> 1903
11:44:32.411 -> 1898
11:44:32.411 -> 1893
11:44:32.411 -> 1889
11:44:32.411 -> 1879
11:44:32.411 -> 1872
11:44:32.411 -> 1867
11:44:32.411 -> 1865
11:44:32.411 -> 1859
11:44:32.411 -> 1856
11:44:32.411 -> 1861
11:44:32.411 -> 1861
11:44:32.411 -> 1865
11:44:32.411 -> 1871
11:44:32.411 -> 1870
11:44:32.411 -> 1887
11:44:32.411 -> 1894
11:44:32.411 -> 1903
11:44:32.411 -> 1905
11:44:32.411 -> 1913
11:44:32.411 -> 1916
11:44:32.411 -> 1915
11:44:32.411 -> 1917
11:44:32.411 -> 1917
11:44:32.411 -> 1915
11:44:32.411 -> 1905
11:44:32.411 -> 1905
11:44:32.411 -> 1904
11:44:32.411 -> 1898
11:44:32.411 -> 1892
11:44:32.411 -> 1897
11:44:32.411 -> 1894
11:44:32.411 -> 1895
11:44:32.446 -> 1893
11:44:32.446 -> 1899
11:44:32.446 -> 1904
11:44:32.446 -> 1907
11:44:32.446 -> 1911
11:44:32.446 -> 1915
11:44:32.446 -> 1919
11:44:32.446 -> 1923
11:44:32.446 -> 1923
11:44:32.446 -> 1920
11:44:32.446 -> 1915
11:44:32.446 -> 1910
11:44:32.446 -> 1904
11:44:32.446 -> 1895
11:44:32.446 -> 1887
11:44:32.446 -> 1879
11:44:32.446 -> 1878
11:44:32.446 -> 1878
11:44:32.446 -> 1877
11:44:32.446 -> 1883
11:44:32.446 -> 1889
11:44:32.446 -> 1894
11:44:32.446 -> 1901
11:44:32.446 -> 1905
11:44:32.446 -> 1913
11:44:32.446 -> 1920
11:44:32.446 -> 1925
11:44:32.446 -> 1921
11:44:32.446 -> 1931
11:44:32.446 -> 1933
11:44:32.446 -> 1930
11:44:32.446 -> 1927
11:44:32.446 -> 1921
11:44:32.481 -> 1918
11:44:32.481 -> 1911
11:44:32.481 -> 1910
11:44:32.481 -> 1909
11:44:32.481 -> 1907
11:44:32.481 -> 1909
11:44:32.481 -> 1915
11:44:32.481 -> 1919
11:44:32.481 -> 1926
11:44:32.481 -> 1931
11:44:32.481 -> 1936
11:44:32.481 -> 1947
11:44:32.481 -> 1949
11:44:32.481 -> 1953
11:44:32.481 -> 1955
11:44:32.481 -> 1959
11:44:32.481 -> 1951
11:44:32.481 -> 1946
11:44:32.481 -> 1939
11:44:32.481 -> 1941
11:44:32.481 -> 1934
11:44:32.481 -> 1931
11:44:32.481 -> 1927
11:44:32.481 -> 1930
11:44:32.481 -> 1935
11:44:32.481 -> 1936
11:44:32.481 -> 1938
11:44:32.481 -> 1947
11:44:32.481 -> 1954
11:44:32.481 -> 1962
11:44:32.481 -> 1968
11:44:32.481 -> 1971
11:44:32.481 -> 1979
11:44:32.481 -> 1979
11:44:32.481 -> 1980
11:44:32.481 -> 1975
11:44:32.481 -> 1971
11:44:32.514 -> 1968
11:44:32.514 -> 1957
11:44:32.514 -> 1949
11:44:32.514 -> 1937
11:44:32.514 -> 1931
11:44:32.514 -> 1922
11:44:32.514 -> 1920
11:44:32.514 -> 1918
11:44:32.514 -> 1917
11:44:32.514 -> 1920
11:44:32.514 -> 1920
11:44:32.514 -> 1930
11:44:32.514 -> 1936
11:44:32.514 -> 1946
11:44:32.514 -> 1956
11:44:32.514 -> 1966
11:44:32.514 -> 1970
11:44:32.514 -> 1974
11:44:32.514 -> 1975
11:44:32.514 -> 1978
11:44:32.514 -> 1975
11:44:32.514 -> 1973
11:44:32.514 -> 1972
11:44:32.514 -> 1968
11:44:32.514 -> 1965
11:44:32.514 -> 1964
11:44:32.514 -> 1958
11:44:32.514 -> 1955
11:44:32.514 -> 1959
11:44:32.514 -> 1962
11:44:32.514 -> 1968
11:44:32.514 -> 1968
11:44:32.549 -> 1969
11:44:32.549 -> 1973
11:44:32.549 -> 1977
11:44:32.549 -> 1977
11:44:32.549 -> 1977
11:44:32.549 -> 1971
11:44:32.549 -> 1968
11:44:32.549 -> 1961
11:44:32.549 -> 1954
11:44:32.549 -> 1943
11:44:32.549 -> 1936
11:44:32.549 -> 1927
11:44:32.549 -> 1921
11:44:32.549 -> 1915
11:44:32.549 -> 1913
11:44:32.549 -> 1910
11:44:32.549 -> 1909
11:44:32.549 -> 1911
11:44:32.549 -> 1915
11:44:32.549 -> 1926
11:44:32.549 -> 1934
11:44:32.549 -> 1937
11:44:32.549 -> 1941
11:44:32.549 -> 1946
11:44:32.549 -> 1946
11:44:32.549 -> 1949
11:44:32.549 -> 1949
11:44:32.549 -> 1946
11:44:32.549 -> 1943
11:44:32.549 -> 1938
11:44:32.549 -> 1935
11:44:32.549 -> 1926
11:44:32.549 -> 1920
11:44:32.582 -> 1915
11:44:32.582 -> 1911
11:44:32.582 -> 1905
11:44:32.582 -> 1904
11:44:32.582 -> 1903
11:44:32.582 -> 1902
11:44:32.582 -> 1904
11:44:32.582 -> 1907
11:44:32.582 -> 1910
11:44:32.582 -> 1913
11:44:32.582 -> 1916
11:44:32.582 -> 1918
11:44:32.582 -> 1919
11:44:32.582 -> 1920
11:44:32.582 -> 1920
11:44:32.582 -> 1921
11:44:32.582 -> 1917
11:44:32.582 -> 1910
11:44:32.582 -> 1904
11:44:32.582 -> 1899
11:44:32.582 -> 1891
11:44:32.582 -> 1886
11:44:32.582 -> 1882
11:44:32.582 -> 1882
11:44:32.582 -> 1889
11:44:32.582 -> 1898
11:44:32.582 -> 1904
11:44:32.582 -> 1908
11:44:32.582 -> 1913
11:44:32.582 -> 1922
11:44:32.582 -> 1929
11:44:32.582 -> 1933
11:44:32.582 -> 1936
11:44:32.582 -> 1939
11:44:32.582 -> 1936
11:44:32.582 -> 1935
11:44:32.582 -> 1931
11:44:32.616 -> 1926
11:44:32.616 -> 1925
11:44:32.616 -> 1920
11:44:32.616 -> 1920
11:44:32.616 -> 1918
11:44:32.616 -> 1914
11:44:32.616 -> 1915
11:44:32.616 -> 1918
11:44:32.616 -> 1920
11:44:32.616 -> 1927
11:44:32.616 -> 1934
11:44:32.616 -> 1936
11:44:32.616 -> 1942
11:44:32.616 -> 1947
11:44:32.616 -> 1951
11:44:32.616 -> 1955
11:44:32.616 -> 1957
11:44:32.616 -> 1959
11:44:32.616 -> 1955
11:44:32.616 -> 1953
11:44:32.616 -> 1949
11:44:32.616 -> 1947
11:44:32.616 -> 1945
11:44:32.616 -> 1945
11:44:32.616 -> 1943
11:44:32.616 -> 1940
11:44:32.616 -> 1941
11:44:32.616 -> 1938
11:44:32.616 -> 1951
11:44:32.616 -> 1954
11:44:32.616 -> 1963
11:44:32.616 -> 1969
11:44:32.651 -> 1981
11:44:32.651 -> 1988
11:44:32.651 -> 1991
11:44:32.651 -> 1993
11:44:32.651 -> 1989
11:44:32.651 -> 1984
11:44:32.651 -> 1975
11:44:32.651 -> 1968
11:44:32.651 -> 1961
11:44:32.651 -> 1953
11:44:32.651 -> 1945
11:44:32.651 -> 1937
11:44:32.651 -> 1934
11:44:32.651 -> 1929
11:44:32.651 -> 1927
11:44:32.651 -> 1930
11:44:32.651 -> 1933
11:44:32.651 -> 1937
11:44:32.651 -> 1946
11:44:32.651 -> 1952
11:44:32.651 -> 1959
11:44:32.651 -> 1964
11:44:32.651 -> 1965
11:44:32.651 -> 1967
11:44:32.651 -> 1965
11:44:32.651 -> 1961
11:44:32.651 -> 1959
11:44:32.651 -> 1950
11:44:32.651 -> 1946
11:44:32.651 -> 1940
11:44:32.651 -> 1936
11:44:32.651 -> 1937
11:44:32.651 -> 1937
11:44:32.685 -> 1940
11:44:32.685 -> 1941
11:44:32.685 -> 1947
11:44:32.685 -> 1954
11:44:32.685 -> 1962
11:44:32.685 -> 1968
11:44:32.685 -> 1974
11:44:32.685 -> 1983
11:44:32.685 -> 1989
11:44:32.685 -> 1991
11:44:32.685 -> 1989
11:44:32.685 -> 1985
11:44:32.685 -> 1983
11:44:32.685 -> 1973
11:44:32.685 -> 1967
11:44:32.685 -> 1959
11:44:32.685 -> 1953
11:44:32.685 -> 1946
11:44:32.685 -> 1947
11:44:32.685 -> 1938
11:44:32.685 -> 1935
11:44:32.685 -> 1936
11:44:32.685 -> 1936
11:44:32.685 -> 1936
11:44:32.685 -> 1937
11:44:32.685 -> 1939
11:44:32.685 -> 1946
11:44:32.685 -> 1949
11:44:32.685 -> 1955
11:44:32.685 -> 1958
11:44:32.685 -> 1960
11:44:32.685 -> 1958
11:44:32.685 -> 1958
11:44:32.685 -> 1953
11:44:32.685 -> 1950
11:44:32.685 -> 1947
11:44:32.685 -> 1943
11:44:32.720 -> 1939
11:44:32.720 -> 1939
11:44:32.720 -> 1941
11:44:32.720 -> 1943
11:44:32.720 -> 1947
11:44:32.720 -> 1957
11:44:32.720 -> 1963
11:44:32.720 -> 1968
11:44:32.720 -> 1973
11:44:32.720 -> 1978
11:44:32.720 -> 1982
11:44:32.720 -> 1983
11:44:32.720 -> 1983
11:44:32.720 -> 1982
11:44:32.720 -> 1980
11:44:32.720 -> 1977
11:44:32.720 -> 1975
11:44:32.720 -> 1971
11:44:32.720 -> 1969
11:44:32.720 -> 1968
11:44:32.720 -> 1968
11:44:32.720 -> 1966
11:44:32.720 -> 1968
11:44:32.720 -> 1965
11:44:32.720 -> 1968
11:44:32.720 -> 1973
11:44:32.720 -> 1978
11:44:32.720 -> 1986
11:44:32.720 -> 1997
11:44:32.720 -> 2000
11:44:32.720 -> 2006
11:44:32.720 -> 2013
11:44:32.754 -> 2014
11:44:32.754 -> 2014
11:44:32.754 -> 2013
11:44:32.754 -> 2006
11:44:32.754 -> 2001
11:44:32.754 -> 1998
11:44:32.754 -> 1991
11:44:32.754 -> 1990
11:44:32.754 -> 1989
11:44:32.754 -> 1984
11:44:32.754 -> 1983
11:44:32.754 -> 1983
11:44:32.754 -> 1982
11:44:32.754 -> 1986
11:44:32.754 -> 1986
11:44:32.754 -> 1987
11:44:32.754 -> 1989
11:44:32.754 -> 1989
11:44:32.754 -> 1991
11:44:32.754 -> 1995
11:44:32.754 -> 1991
11:44:32.754 -> 1985
11:44:32.754 -> 1978
11:44:32.754 -> 1968
11:44:32.754 -> 1963
11:44:32.754 -> 1952
11:44:32.754 -> 1942
11:44:32.754 -> 1939
11:44:32.754 -> 1937
11:44:32.754 -> 1936
11:44:32.754 -> 1935
11:44:32.754 -> 1936
11:44:32.754 -> 1938
11:44:32.754 -> 1943
11:44:32.754 -> 1950
11:44:32.754 -> 1961
11:44:32.754 -> 1969
11:44:32.788 -> 1981
11:44:32.788 -> 1989
11:44:32.788 -> 1997
11:44:32.788 -> 2000
11:44:32.788 -> 2000
11:44:32.788 -> 2002
11:44:32.788 -> 2000
11:44:32.788 -> 2000
11:44:32.788 -> 1994
11:44:32.788 -> 1985
11:44:32.788 -> 1983
11:44:32.788 -> 1979
11:44:32.788 -> 1979
11:44:32.788 -> 1979
11:44:32.788 -> 1981
11:44:32.788 -> 1984
11:44:32.788 -> 1990
11:44:32.788 -> 1995
11:44:32.788 -> 2000
11:44:32.788 -> 2004
11:44:32.788 -> 2010
11:44:32.788 -> 2015
11:44:32.788 -> 2019
11:44:32.788 -> 2017
11:44:32.788 -> 2019
11:44:32.788 -> 2019
11:44:32.788 -> 2018
11:44:32.788 -> 2019
11:44:32.788 -> 2017
11:44:32.788 -> 2015
11:44:32.788 -> 2011
11:44:32.788 -> 2006
11:44:32.788 -> 2007
11:44:32.821 -> 2007
11:44:32.821 -> 2011
11:44:32.821 -> 2014
11:44:32.821 -> 2025
11:44:32.821 -> 2032
11:44:32.821 -> 2039
11:44:32.821 -> 2047
11:44:32.821 -> 2064
11:44:32.821 -> 2071
11:44:32.821 -> 2083
11:44:32.821 -> 2094
11:44:32.821 -> 2099
11:44:32.821 -> 2102
11:44:32.821 -> 2101
11:44:32.821 -> 2099
11:44:32.821 -> 2096
11:44:32.821 -> 2093
11:44:32.821 -> 2084
11:44:32.821 -> 2071
11:44:32.821 -> 2067
11:44:32.821 -> 2058
11:44:32.821 -> 2047
11:44:32.821 -> 2043
11:44:32.821 -> 2043
11:44:32.821 -> 2047
11:44:32.821 -> 2059
11:44:32.821 -> 2066
11:44:32.821 -> 2079
11:44:32.821 -> 2096
11:44:32.821 -> 2113
11:44:32.821 -> 2139
11:44:32.821 -> 2165
11:44:32.855 -> 2191
11:44:32.855 -> 2206
11:44:32.855 -> 2225
11:44:32.855 -> 2231
11:44:32.855 -> 2235
11:44:32.855 -> 2239
11:44:32.855 -> 2239
11:44:32.855 -> 2233
11:44:32.855 -> 2225
11:44:32.855 -> 2218
11:44:32.855 -> 2205
11:44:32.855 -> 2193
11:44:32.855 -> 2185
11:44:32.855 -> 2173
11:44:32.855 -> 2161
11:44:32.855 -> 2155
11:44:32.855 -> 2147
11:44:32.855 -> 2137
11:44:32.855 -> 2133
11:44:32.855 -> 2128
11:44:32.855 -> 2123
11:44:32.855 -> 2115
11:44:32.855 -> 2107
11:44:32.855 -> 2103
11:44:32.855 -> 2098
11:44:32.855 -> 2092
11:44:32.855 -> 2090
11:44:32.855 -> 2078
11:44:32.855 -> 2071
11:44:32.855 -> 2065
11:44:32.855 -> 2064
11:44:32.855 -> 2061
11:44:32.855 -> 2055
11:44:32.888 -> 2047
11:44:32.888 -> 2045
11:44:32.888 -> 2039
11:44:32.888 -> 2037
11:44:32.888 -> 2045
11:44:32.888 -> 2045
11:44:32.888 -> 2039
11:44:32.888 -> 2039
11:44:32.888 -> 2034
11:44:32.888 -> 2031
11:44:32.888 -> 2022
11:44:32.888 -> 2013
11:44:32.888 -> 1999
11:44:32.888 -> 1993
11:44:32.888 -> 1983
11:44:32.888 -> 1971
11:44:32.888 -> 1966
11:44:32.888 -> 1961
11:44:32.888 -> 1953
11:44:32.888 -> 1953
11:44:32.888 -> 1951
11:44:32.888 -> 1951
11:44:32.888 -> 1957
11:44:32.888 -> 1959
11:44:32.888 -> 1959
11:44:32.888 -> 1961
11:44:32.888 -> 1961
11:44:32.888 -> 1957
11:44:32.888 -> 1950
11:44:32.888 -> 1942
11:44:32.888 -> 1937
11:44:32.888 -> 1930
11:44:32.888 -> 1922
11:44:32.888 -> 1916
11:44:32.888 -> 1913
11:44:32.888 -> 1907
11:44:32.888 -> 1909
11:44:32.923 -> 1910
11:44:32.923 -> 1915
11:44:32.923 -> 1920
11:44:32.923 -> 1931
11:44:32.923 -> 1936
11:44:32.923 -> 1943
11:44:32.923 -> 1949
11:44:32.923 -> 1955
11:44:32.923 -> 1963
11:44:32.923 -> 1958
11:44:32.923 -> 1959
11:44:32.923 -> 1951
11:44:32.923 -> 1939
11:44:32.923 -> 1933
11:44:32.923 -> 1920
11:44:32.923 -> 1909
11:44:32.923 -> 1902
11:44:32.923 -> 1894
11:44:32.923 -> 1889
11:44:32.923 -> 1885
11:44:32.923 -> 1886
11:44:32.923 -> 1891
11:44:32.923 -> 1893
11:44:32.923 -> 1901
11:44:32.923 -> 1904
11:44:32.923 -> 1911
11:44:32.923 -> 1911
11:44:32.923 -> 1915
11:44:32.923 -> 1914
11:44:32.923 -> 1913
11:44:32.923 -> 1905
11:44:32.923 -> 1893
11:44:32.956 -> 1873
11:44:32.956 -> 1854
11:44:32.956 -> 1833
11:44:32.956 -> 1808
11:44:32.956 -> 1789
11:44:32.956 -> 1775
11:44:32.956 -> 1770
11:44:32.956 -> 1768
11:44:32.956 -> 1772
11:44:32.956 -> 1782
11:44:32.956 -> 1801
11:44:32.956 -> 1825
11:44:32.956 -> 1855
11:44:32.956 -> 1893
11:44:32.956 -> 1934
11:44:32.956 -> 1979
11:44:32.956 -> 2027
11:44:32.956 -> 2083
11:44:32.956 -> 2142
11:44:32.956 -> 2203
11:44:32.956 -> 2273
11:44:32.956 -> 2351
11:44:32.956 -> 2431
11:44:32.956 -> 2513
11:44:32.956 -> 2608
11:44:32.956 -> 2691
11:44:32.956 -> 2768
11:44:32.956 -> 2847
11:44:32.956 -> 2919
11:44:32.956 -> 2987
11:44:32.956 -> 3051
11:44:32.956 -> 3119
11:44:32.956 -> 3175
11:44:32.990 -> 3227
11:44:32.990 -> 3285
11:44:32.990 -> 3343
11:44:32.990 -> 3407
11:44:32.990 -> 3467
11:44:32.990 -> 3519
11:44:32.990 -> 3539
11:44:32.990 -> 3535
11:44:32.990 -> 3501
11:44:32.990 -> 3439
11:44:32.990 -> 3351
11:44:32.990 -> 3259
11:44:32.990 -> 3159
11:44:32.990 -> 3055
11:44:32.990 -> 2949
11:44:32.990 -> 2852
11:44:32.990 -> 2759
11:44:32.990 -> 2672
11:44:32.990 -> 2597
11:44:32.990 -> 2525
11:44:32.990 -> 2470
11:44:32.990 -> 2423
11:44:32.990 -> 2387
11:44:32.990 -> 2362
11:44:32.990 -> 2347
11:44:32.990 -> 2327
11:44:32.990 -> 2319
11:44:32.990 -> 2303
11:44:32.990 -> 2289
11:44:32.990 -> 2274
11:44:32.990 -> 2255
11:44:32.990 -> 2229
11:44:32.990 -> 2205
11:44:32.990 -> 2177
11:44:32.990 -> 2155
11:44:32.990 -> 2128
11:44:32.990 -> 2106
11:44:33.024 -> 2087
11:44:33.024 -> 2064
11:44:33.024 -> 2042
11:44:33.024 -> 2019
11:44:33.024 -> 2000
11:44:33.024 -> 1974
11:44:33.024 -> 1952
11:44:33.024 -> 1930
11:44:33.024 -> 1911
11:44:33.024 -> 1897
11:44:33.024 -> 1881
11:44:33.024 -> 1872
11:44:33.024 -> 1856
11:44:33.024 -> 1845
11:44:33.024 -> 1838
11:44:33.024 -> 1828
11:44:33.024 -> 1821
11:44:33.024 -> 1811
11:44:33.024 -> 1806
11:44:33.024 -> 1807
11:44:33.024 -> 1808
11:44:33.024 -> 1809
11:44:33.024 -> 1815
11:44:33.024 -> 1813
11:44:33.024 -> 1818
11:44:33.024 -> 1820
11:44:33.024 -> 1818
11:44:33.024 -> 1819
11:44:33.024 -> 1819
11:44:33.024 -> 1813
11:44:33.024 -> 1808
11:44:33.024 -> 1803
11:44:33.059 -> 1792
11:44:33.059 -> 1782
11:44:33.059 -> 1775
11:44:33.059 -> 1769
11:44:33.059 -> 1759
11:44:33.059 -> 1751
11:44:33.059 -> 1747
11:44:33.059 -> 1747
11:44:33.059 -> 1749
11:44:33.059 -> 1752
11:44:33.059 -> 1759
11:44:33.059 -> 1763
11:44:33.059 -> 1766
11:44:33.059 -> 1773
11:44:33.059 -> 1781
11:44:33.059 -> 1783
11:44:33.059 -> 1787
11:44:33.059 -> 1783
11:44:33.059 -> 1777
11:44:33.059 -> 1776
11:44:33.059 -> 1767
11:44:33.059 -> 1759
11:44:33.059 -> 1752
11:44:33.059 -> 1744
11:44:33.059 -> 1744
11:44:33.059 -> 1739
11:44:33.059 -> 1744
11:44:33.059 -> 1744
11:44:33.059 -> 1747
11:44:33.059 -> 1759
11:44:33.059 -> 1759
11:44:33.059 -> 1767
11:44:33.059 -> 1775
11:44:33.093 -> 1776
11:44:33.093 -> 1781
11:44:33.093 -> 1789
11:44:33.093 -> 1789
11:44:33.093 -> 1789
11:44:33.093 -> 1789
11:44:33.093 -> 1786
11:44:33.093 -> 1783
11:44:33.093 -> 1779
11:44:33.093 -> 1777
11:44:33.093 -> 1775
11:44:33.093 -> 1773
11:44:33.093 -> 1771
11:44:33.093 -> 1769
11:44:33.093 -> 1765
11:44:33.093 -> 1766
11:44:33.093 -> 1767
11:44:33.093 -> 1766
11:44:33.093 -> 1772
11:44:33.093 -> 1773
11:44:33.093 -> 1776
11:44:33.093 -> 1777
11:44:33.093 -> 1781
11:44:33.093 -> 1790
11:44:33.093 -> 1791
11:44:33.093 -> 1795
11:44:33.093 -> 1799
11:44:33.093 -> 1803
11:44:33.093 -> 1808
11:44:33.093 -> 1810
11:44:33.093 -> 1814
11:44:33.093 -> 1822
11:44:33.093 -> 1827
11:44:33.093 -> 1838
11:44:33.093 -> 1841
11:44:33.093 -> 1851
11:44:33.093 -> 1856
11:44:33.127 -> 1858
11:44:33.127 -> 1860
11:44:33.127 -> 1863
11:44:33.127 -> 1863
11:44:33.127 -> 1862
11:44:33.127 -> 1858
11:44:33.127 -> 1855
11:44:33.127 -> 1851
11:44:33.127 -> 1843
11:44:33.127 -> 1840
11:44:33.127 -> 1837
11:44:33.127 -> 1837
11:44:33.127 -> 1831
11:44:33.127 -> 1829
11:44:33.127 -> 1829
11:44:33.127 -> 1833
11:44:33.127 -> 1838
11:44:33.127 -> 1840
11:44:33.127 -> 1853
11:44:33.127 -> 1855
11:44:33.127 -> 1863
11:44:33.127 -> 1872
11:44:33.127 -> 1880
11:44:33.127 -> 1888
11:44:33.127 -> 1896
11:44:33.127 -> 1898
11:44:33.127 -> 1895
11:44:33.127 -> 1893
11:44:33.127 -> 1888
11:44:33.127 -> 1879
11:44:33.127 -> 1876
11:44:33.127 -> 1872
11:44:33.161 -> 1869
11:44:33.161 -> 1866
11:44:33.161 -> 1869
11:44:33.161 -> 1871
11:44:33.161 -> 1872
11:44:33.161 -> 1879
11:44:33.161 -> 1886
11:44:33.161 -> 1898
11:44:33.161 -> 1906
11:44:33.161 -> 1920
11:44:33.161 -> 1927
11:44:33.161 -> 1935
11:44:33.161 -> 1936
11:44:33.161 -> 1937
11:44:33.161 -> 1938
11:44:33.161 -> 1936
11:44:33.161 -> 1936
11:44:33.161 -> 1934
11:44:33.161 -> 1935
11:44:33.161 -> 1929
11:44:33.161 -> 1927
11:44:33.161 -> 1927
11:44:33.161 -> 1923
11:44:33.161 -> 1926
11:44:33.161 -> 1927
11:44:33.161 -> 1931
11:44:33.161 -> 1936
11:44:33.161 -> 1944
11:44:33.161 -> 1951
11:44:33.161 -> 1957
11:44:33.161 -> 1968
11:44:33.161 -> 1973
11:44:33.161 -> 1983
11:44:33.161 -> 1989
11:44:33.161 -> 1990
11:44:33.161 -> 1991
11:44:33.161 -> 1994
11:44:33.196 -> 1990
11:44:33.196 -> 1985
11:44:33.196 -> 1980
11:44:33.196 -> 1975
11:44:33.196 -> 1969
11:44:33.196 -> 1968
11:44:33.196 -> 1965
11:44:33.196 -> 1967
11:44:33.196 -> 1965
11:44:33.196 -> 1970
11:44:33.196 -> 1977
11:44:33.196 -> 1986
11:44:33.196 -> 1999
11:44:33.196 -> 2012
11:44:33.196 -> 2023
11:44:33.196 -> 2039
11:44:33.196 -> 2043
11:44:33.196 -> 2047
11:44:33.196 -> 2058
11:44:33.196 -> 2063
11:44:33.196 -> 2064
11:44:33.196 -> 2061
11:44:33.196 -> 2060
11:44:33.196 -> 2055
11:44:33.196 -> 2055
11:44:33.196 -> 2047
11:44:33.196 -> 2058
11:44:33.196 -> 2055
11:44:33.196 -> 2061
11:44:33.196 -> 2064
11:44:33.196 -> 2071
11:44:33.196 -> 2083
11:44:33.196 -> 2091
11:44:33.230 -> 2098
11:44:33.230 -> 2106
11:44:33.230 -> 2112
11:44:33.230 -> 2114
11:44:33.230 -> 2125
11:44:33.230 -> 2128
11:44:33.230 -> 2131
11:44:33.230 -> 2135
11:44:33.230 -> 2137
11:44:33.230 -> 2139
11:44:33.230 -> 2143
11:44:33.230 -> 2147
11:44:33.230 -> 2151
11:44:33.230 -> 2157
11:44:33.230 -> 2160
11:44:33.230 -> 2167
11:44:33.230 -> 2179
11:44:33.230 -> 2192
11:44:33.230 -> 2203
11:44:33.230 -> 2219
11:44:33.230 -> 2227
11:44:33.230 -> 2240
11:44:33.230 -> 2250
11:44:33.230 -> 2255
11:44:33.230 -> 2258
11:44:33.230 -> 2262
11:44:33.230 -> 2258
11:44:33.230 -> 2256
11:44:33.230 -> 2256
11:44:33.230 -> 2251
11:44:33.230 -> 2246
11:44:33.230 -> 2241
11:44:33.264 -> 2239
11:44:33.264 -> 2242
11:44:33.264 -> 2252
11:44:33.264 -> 2257
11:44:33.264 -> 2267
11:44:33.264 -> 2275
11:44:33.264 -> 2288
11:44:33.264 -> 2299
11:44:33.264 -> 2311
11:44:33.264 -> 2321
11:44:33.264 -> 2327
11:44:33.264 -> 2333
11:44:33.264 -> 2337
11:44:33.264 -> 2333
11:44:33.264 -> 2331
11:44:33.264 -> 2320
11:44:33.264 -> 2315
11:44:33.264 -> 2298
11:44:33.264 -> 2288
11:44:33.264 -> 2277
11:44:33.264 -> 2263
11:44:33.264 -> 2255
11:44:33.264 -> 2239
11:44:33.264 -> 2236
11:44:33.264 -> 2227
11:44:33.264 -> 2224
11:44:33.264 -> 2218
11:44:33.264 -> 2211
11:44:33.264 -> 2205
11:44:33.264 -> 2194
11:44:33.264 -> 2187
11:44:33.264 -> 2175
11:44:33.264 -> 2162
11:44:33.264 -> 2146
11:44:33.264 -> 2128
11:44:33.264 -> 2111
11:44:33.264 -> 2095
11:44:33.298 -> 2069
11:44:33.298 -> 2047
11:44:33.298 -> 2033
11:44:33.298 -> 2020
11:44:33.298 -> 2007
11:44:33.298 -> 1999
11:44:33.298 -> 1993
11:44:33.298 -> 1986
11:44:33.298 -> 1983
11:44:33.298 -> 1977
11:44:33.298 -> 1973
11:44:33.298 -> 1968
11:44:33.298 -> 1966
11:44:33.298 -> 1959
11:44:33.298 -> 1951
11:44:33.298 -> 1938
11:44:33.298 -> 1927
11:44:33.298 -> 1918
11:44:33.298 -> 1904
11:44:33.298 -> 1890
11:44:33.298 -> 1877
11:44:33.298 -> 1870
11:44:33.298 -> 1856
11:44:33.298 -> 1843
11:44:33.298 -> 1827
11:44:33.298 -> 1830
11:44:33.298 -> 1829
11:44:33.298 -> 1830
11:44:33.298 -> 1835
11:44:33.298 -> 1839
11:44:33.298 -> 1840
11:44:33.298 -> 1842
11:44:33.298 -> 1850
11:44:33.332 -> 1852
11:44:33.332 -> 1851
11:44:33.332 -> 1853
11:44:33.332 -> 1850
11:44:33.332 -> 1845
11:44:33.332 -> 1840
11:44:33.332 -> 1833
11:44:33.332 -> 1826
11:44:33.332 -> 1819
11:44:33.332 -> 1813
11:44:33.332 -> 1812
11:44:33.332 -> 1813
11:44:33.332 -> 1813
11:44:33.332 -> 1818
11:44:33.332 -> 1824
11:44:33.332 -> 1825
11:44:33.332 -> 1839
11:44:33.332 -> 1842
11:44:33.332 -> 1847
11:44:33.332 -> 1855
11:44:33.332 -> 1856
11:44:33.332 -> 1855
11:44:33.332 -> 1855
11:44:33.332 -> 1846
11:44:33.332 -> 1841
11:44:33.332 -> 1840
11:44:33.332 -> 1833
11:44:33.332 -> 1824
11:44:33.332 -> 1813
11:44:33.332 -> 1808
11:44:33.332 -> 1805
11:44:33.332 -> 1801
11:44:33.365 -> 1792
11:44:33.365 -> 1792
11:44:33.365 -> 1793
11:44:33.365 -> 1791
11:44:33.365 -> 1793
11:44:33.365 -> 1795
11:44:33.365 -> 1802
11:44:33.365 -> 1808
11:44:33.365 -> 1811
11:44:33.365 -> 1819
11:44:33.365 -> 1824
11:44:33.365 -> 1827
11:44:33.365 -> 1834
11:44:33.365 -> 1839
11:44:33.365 -> 1839
11:44:33.365 -> 1837
11:44:33.365 -> 1835
11:44:33.365 -> 1835
11:44:33.365 -> 1834
11:44:33.365 -> 1830
11:44:33.365 -> 1834
11:44:33.365 -> 1836
11:44:33.365 -> 1839
11:44:33.365 -> 1840
11:44:33.365 -> 1851
11:44:33.365 -> 1853
11:44:33.365 -> 1854
11:44:33.365 -> 1858
11:44:33.365 -> 1857
11:44:33.365 -> 1859
11:44:33.365 -> 1857
11:44:33.365 -> 1856
11:44:33.365 -> 1851
11:44:33.399 -> 1846
11:44:33.399 -> 1842
11:44:33.399 -> 1838
11:44:33.399 -> 1831
11:44:33.399 -> 1826
11:44:33.399 -> 1825
11:44:33.399 -> 1825
11:44:33.399 -> 1829
11:44:33.399 -> 1831
11:44:33.399 -> 1840
11:44:33.399 -> 1845
11:44:33.399 -> 1853
11:44:33.399 -> 1863
11:44:33.399 -> 1871
11:44:33.399 -> 1874
11:44:33.399 -> 1879
11:44:33.399 -> 1879
11:44:33.399 -> 1878
11:44:33.399 -> 1873
11:44:33.399 -> 1870
11:44:33.399 -> 1860
11:44:33.399 -> 1854
11:44:33.399 -> 1847
11:44:33.399 -> 1847
11:44:33.399 -> 1843
11:44:33.399 -> 1842
11:44:33.399 -> 1842
11:44:33.399 -> 1843
11:44:33.399 -> 1853
11:44:33.399 -> 1861
11:44:33.399 -> 1872
11:44:33.399 -> 1882
11:44:33.399 -> 1893
11:44:33.399 -> 1904
11:44:33.399 -> 1913
11:44:33.399 -> 1919
11:44:33.399 -> 1923
11:44:33.432 -> 1923
11:44:33.432 -> 1923
11:44:33.432 -> 1919
11:44:33.432 -> 1917
11:44:33.432 -> 1907
11:44:33.432 -> 1904
11:44:33.432 -> 1895
11:44:33.432 -> 1894
11:44:33.432 -> 1887
11:44:33.432 -> 1879
11:44:33.432 -> 1879
11:44:33.432 -> 1882
11:44:33.432 -> 1885
11:44:33.432 -> 1885
11:44:33.432 -> 1888
11:44:33.432 -> 1898
11:44:33.432 -> 1902
11:44:33.432 -> 1905
11:44:33.432 -> 1905
11:44:33.432 -> 1904
11:44:33.432 -> 1905
11:44:33.432 -> 1904
11:44:33.432 -> 1904
11:44:33.432 -> 1896
11:44:33.432 -> 1893
11:44:33.432 -> 1889
11:44:33.432 -> 1884
11:44:33.432 -> 1879
11:44:33.432 -> 1874
11:44:33.432 -> 1872
11:44:33.432 -> 1871
11:44:33.432 -> 1872
11:44:33.465 -> 1873
11:44:33.465 -> 1878
11:44:33.465 -> 1881
11:44:33.465 -> 1887
11:44:33.465 -> 1891
11:44:33.465 -> 1895
11:44:33.465 -> 1897
11:44:33.465 -> 1898
11:44:33.465 -> 1895
11:44:33.465 -> 1893
11:44:33.465 -> 1893
11:44:33.465 -> 1887
11:44:33.465 -> 1890
11:44:33.465 -> 1898
11:44:33.465 -> 1889
11:44:33.465 -> 1889
11:44:33.465 -> 1888
11:44:33.465 -> 1892
11:44:33.465 -> 1893
11:44:33.465 -> 1901
11:44:33.465 -> 1906
11:44:33.465 -> 1918
11:44:33.465 -> 1925
11:44:33.465 -> 1933
11:44:33.465 -> 1942
11:44:33.465 -> 1945
11:44:33.465 -> 1953
11:44:33.465 -> 1953
11:44:33.465 -> 1954
11:44:33.465 -> 1955
11:44:33.465 -> 1950
11:44:33.465 -> 1944
11:44:33.465 -> 1941
11:44:33.499 -> 1929
11:44:33.499 -> 1920
11:44:33.499 -> 1904
11:44:33.499 -> 1904
11:44:33.499 -> 1898
11:44:33.499 -> 1890
11:44:33.499 -> 1888
11:44:33.499 -> 1889
11:44:33.499 -> 1879
11:44:33.499 -> 1893
11:44:33.499 -> 1901
11:44:33.499 -> 1904
11:44:33.499 -> 1907
11:44:33.499 -> 1913
11:44:33.499 -> 1914
11:44:33.499 -> 1918
11:44:33.499 -> 1914
11:44:33.499 -> 1910
11:44:33.499 -> 1904
11:44:33.499 -> 1904
11:44:33.499 -> 1897
11:44:33.499 -> 1895
11:44:33.499 -> 1891
11:44:33.499 -> 1893
11:44:33.499 -> 1891
11:44:33.499 -> 1891
11:44:33.499 -> 1894
11:44:33.499 -> 1898
11:44:33.499 -> 1902
11:44:33.499 -> 1904
11:44:33.499 -> 1909
11:44:33.499 -> 1908
11:44:33.534 -> 1915
11:44:33.534 -> 1920
11:44:33.534 -> 1920
11:44:33.534 -> 1922
11:44:33.534 -> 1921
11:44:33.534 -> 1919
11:44:33.534 -> 1917
11:44:33.534 -> 1915
11:44:33.534 -> 1907
11:44:33.534 -> 1902
11:44:33.534 -> 1903
11:44:33.534 -> 1904
11:44:33.534 -> 1902
11:44:33.534 -> 1904
11:44:33.534 -> 1909
11:44:33.534 -> 1917
11:44:33.534 -> 1926
11:44:33.534 -> 1935
11:44:33.534 -> 1939
11:44:33.534 -> 1947
11:44:33.534 -> 1955
11:44:33.534 -> 1957
11:44:33.534 -> 1959
11:44:33.534 -> 1959
11:44:33.534 -> 1958
11:44:33.534 -> 1955
11:44:33.534 -> 1950
11:44:33.534 -> 1947
11:44:33.534 -> 1943
11:44:33.534 -> 1941
11:44:33.534 -> 1936
11:44:33.534 -> 1936
11:44:33.534 -> 1936
11:44:33.534 -> 1936
11:44:33.534 -> 1939
11:44:33.534 -> 1946
11:44:33.534 -> 1950
11:44:33.568 -> 1954
11:44:33.568 -> 1961
11:44:33.568 -> 1966
11:44:33.568 -> 1967
11:44:33.568 -> 1966
11:44:33.568 -> 1965
11:44:33.568 -> 1958
11:44:33.568 -> 1950
11:44:33.568 -> 1942
11:44:33.568 -> 1936
11:44:33.568 -> 1935
11:44:33.568 -> 1929
11:44:33.568 -> 1930
11:44:33.568 -> 1919
11:44:33.568 -> 1922
11:44:33.568 -> 1923
11:44:33.568 -> 1923
11:44:33.568 -> 1927
11:44:33.568 -> 1931
11:44:33.568 -> 1934
11:44:33.568 -> 1936
11:44:33.568 -> 1940
11:44:33.568 -> 1939
11:44:33.568 -> 1943
11:44:33.568 -> 1947
11:44:33.568 -> 1950
11:44:33.568 -> 1953
11:44:33.568 -> 1947
11:44:33.568 -> 1943
11:44:33.568 -> 1938
11:44:33.568 -> 1935
11:44:33.568 -> 1930
11:44:33.568 -> 1924
11:44:33.602 -> 1919
11:44:33.602 -> 1918
11:44:33.602 -> 1915
11:44:33.602 -> 1918
11:44:33.602 -> 1918
11:44:33.602 -> 1922
11:44:33.602 -> 1929
11:44:33.602 -> 1936
11:44:33.602 -> 1942
11:44:33.602 -> 1953
11:44:33.602 -> 1957
11:44:33.602 -> 1962
11:44:33.602 -> 1968
11:44:33.602 -> 1969
11:44:33.602 -> 1969
11:44:33.602 -> 1969
11:44:33.602 -> 1962
11:44:33.602 -> 1954
11:44:33.602 -> 1947
11:44:33.602 -> 1937
11:44:33.602 -> 1923
11:44:33.602 -> 1921
11:44:33.602 -> 1914
11:44:33.602 -> 1913
11:44:33.602 -> 1911
11:44:33.602 -> 1915
11:44:33.602 -> 1917
11:44:33.602 -> 1919
11:44:33.602 -> 1923
11:44:33.602 -> 1923
11:44:33.602 -> 1924
11:44:33.602 -> 1925
11:44:33.602 -> 1920
11:44:33.602 -> 1924
11:44:33.602 -> 1921
11:44:33.602 -> 1921
11:44:33.602 -> 1912
11:44:33.637 -> 1906
11:44:33.637 -> 1904
11:44:33.637 -> 1899
11:44:33.637 -> 1894
11:44:33.637 -> 1897
11:44:33.637 -> 1895
11:44:33.637 -> 1898
11:44:33.637 -> 1898
11:44:33.637 -> 1904
11:44:33.637 -> 1906
11:44:33.637 -> 1918
11:44:33.637 -> 1922
11:44:33.637 -> 1927
11:44:33.637 -> 1933
11:44:33.637 -> 1934
11:44:33.637 -> 1933
11:44:33.637 -> 1925
11:44:33.637 -> 1919
11:44:33.637 -> 1914
11:44:33.637 -> 1909
11:44:33.637 -> 1905
11:44:33.637 -> 1904
11:44:33.637 -> 1902
11:44:33.637 -> 1899
11:44:33.637 -> 1894
11:44:33.637 -> 1893
11:44:33.637 -> 1890
11:44:33.637 -> 1890
11:44:33.637 -> 1893
11:44:33.637 -> 1898
11:44:33.637 -> 1903
11:44:33.637 -> 1909
11:44:33.671 -> 1915
11:44:33.671 -> 1922
11:44:33.671 -> 1923
11:44:33.671 -> 1924
11:44:33.671 -> 1921
11:44:33.671 -> 1919
11:44:33.671 -> 1911
11:44:33.671 -> 1907
11:44:33.671 -> 1904
11:44:33.671 -> 1890
11:44:33.671 -> 1901
11:44:33.671 -> 1899
11:44:33.671 -> 1901
11:44:33.671 -> 1904
11:44:33.671 -> 1905
11:44:33.671 -> 1908
11:44:33.671 -> 1914
11:44:33.671 -> 1921
11:44:33.671 -> 1930
11:44:33.671 -> 1933
11:44:33.671 -> 1936
11:44:33.671 -> 1938
11:44:33.671 -> 1941
11:44:33.671 -> 1939
11:44:33.671 -> 1936
11:44:33.671 -> 1936
11:44:33.671 -> 1926
11:44:33.671 -> 1917
11:44:33.671 -> 1910
11:44:33.671 -> 1903
11:44:33.671 -> 1896
11:44:33.671 -> 1891
11:44:33.671 -> 1887
11:44:33.706 -> 1889
11:44:33.706 -> 1893
11:44:33.706 -> 1895
11:44:33.706 -> 1904
11:44:33.706 -> 1910
11:44:33.706 -> 1920
11:44:33.706 -> 1924
11:44:33.706 -> 1934
11:44:33.706 -> 1936
11:44:33.706 -> 1937
11:44:33.706 -> 1936
11:44:33.706 -> 1936
11:44:33.706 -> 1931
11:44:33.706 -> 1920
11:44:33.706 -> 1910
11:44:33.706 -> 1904
11:44:33.706 -> 1891
11:44:33.706 -> 1885
11:44:33.706 -> 1882
11:44:33.706 -> 1872
11:44:33.706 -> 1872
11:44:33.706 -> 1872
11:44:33.706 -> 1874
11:44:33.706 -> 1882
11:44:33.706 -> 1891
11:44:33.706 -> 1898
11:44:33.706 -> 1903
11:44:33.706 -> 1914
11:44:33.706 -> 1920
11:44:33.706 -> 1920
11:44:33.706 -> 1919
11:44:33.706 -> 1911
11:44:33.706 -> 1911
11:44:33.706 -> 1906
11:44:33.706 -> 1899
11:44:33.706 -> 1889
11:44:33.706 -> 1879
11:44:33.741 -> 1870
11:44:33.741 -> 1869
11:44:33.741 -> 1863
11:44:33.741 -> 1861
11:44:33.741 -> 1862
11:44:33.741 -> 1867
11:44:33.741 -> 1875
11:44:33.741 -> 1886
11:44:33.741 -> 1899
11:44:33.741 -> 1910
11:44:33.741 -> 1919
11:44:33.741 -> 1930
11:44:33.741 -> 1936
11:44:33.741 -> 1940
11:44:33.741 -> 1943
11:44:33.741 -> 1943
11:44:33.741 -> 1937
11:44:33.741 -> 1936
11:44:33.741 -> 1929
11:44:33.741 -> 1921
11:44:33.741 -> 1915
11:44:33.741 -> 1904
11:44:33.741 -> 1899
11:44:33.741 -> 1891
11:44:33.741 -> 1895
11:44:33.741 -> 1890
11:44:33.741 -> 1891
11:44:33.741 -> 1895
11:44:33.741 -> 1902
11:44:33.741 -> 1906
11:44:33.741 -> 1910
11:44:33.741 -> 1919
11:44:33.775 -> 1920
11:44:33.775 -> 1927
11:44:33.775 -> 1933
11:44:33.775 -> 1933
11:44:33.775 -> 1933
11:44:33.775 -> 1931
11:44:33.775 -> 1926
11:44:33.775 -> 1921
11:44:33.775 -> 1919
11:44:33.775 -> 1914
11:44:33.775 -> 1910
11:44:33.775 -> 1911
11:44:33.775 -> 1915
11:44:33.775 -> 1919
11:44:33.775 -> 1921
11:44:33.775 -> 1930
11:44:33.775 -> 1936
11:44:33.775 -> 1939
11:44:33.775 -> 1947
11:44:33.775 -> 1949
11:44:33.775 -> 1943
11:44:33.775 -> 1950
11:44:33.775 -> 1943
11:44:33.775 -> 1943
11:44:33.775 -> 1936
11:44:33.775 -> 1934
11:44:33.775 -> 1923
11:44:33.775 -> 1920
11:44:33.775 -> 1914
11:44:33.775 -> 1907
11:44:33.775 -> 1906
11:44:33.775 -> 1904
11:44:33.775 -> 1906
11:44:33.775 -> 1913
11:44:33.775 -> 1919
11:44:33.775 -> 1925
11:44:33.775 -> 1936
11:44:33.775 -> 1945
11:44:33.808 -> 1955
11:44:33.808 -> 1967
11:44:33.808 -> 1968
11:44:33.808 -> 1971
11:44:33.808 -> 1969
11:44:33.808 -> 1968
11:44:33.808 -> 1967
11:44:33.808 -> 1961
11:44:33.808 -> 1959
11:44:33.808 -> 1951
11:44:33.808 -> 1950
11:44:33.808 -> 1951
11:44:33.808 -> 1948
11:44:33.808 -> 1949
11:44:33.808 -> 1950
11:44:33.808 -> 1953
11:44:33.808 -> 1957
11:44:33.808 -> 1959
11:44:33.808 -> 1961
11:44:33.808 -> 1962
11:44:33.808 -> 1957
11:44:33.808 -> 1954
11:44:33.808 -> 1954
11:44:33.808 -> 1951
11:44:33.808 -> 1951
11:44:33.808 -> 1945
11:44:33.808 -> 1941
11:44:33.808 -> 1936
11:44:33.808 -> 1931
11:44:33.808 -> 1925
11:44:33.808 -> 1920
11:44:33.808 -> 1917
11:44:33.843 -> 1919
11:44:33.843 -> 1917
11:44:33.843 -> 1922
11:44:33.843 -> 1931
11:44:33.843 -> 1938
11:44:33.843 -> 1945
11:44:33.843 -> 1954
11:44:33.843 -> 1963
11:44:33.843 -> 1968
11:44:33.843 -> 1972
11:44:33.843 -> 1981
11:44:33.843 -> 1984
11:44:33.843 -> 1987
11:44:33.843 -> 1984
11:44:33.843 -> 1984
11:44:33.843 -> 1982
11:44:33.843 -> 1973
11:44:33.843 -> 1971
11:44:33.843 -> 1969
11:44:33.843 -> 1968
11:44:33.843 -> 1966
11:44:33.843 -> 1963
11:44:33.843 -> 1966
11:44:33.843 -> 1968
11:44:33.843 -> 1969
11:44:33.843 -> 1975
11:44:33.843 -> 1979
11:44:33.843 -> 1983
11:44:33.843 -> 1986
11:44:33.843 -> 1987
11:44:33.843 -> 1993
11:44:33.843 -> 1994
11:44:33.843 -> 1995
11:44:33.877 -> 1995
11:44:33.877 -> 1987
11:44:33.877 -> 1982
11:44:33.877 -> 1975
11:44:33.877 -> 1968
11:44:33.877 -> 1959
11:44:33.877 -> 1953
11:44:33.877 -> 1951
11:44:33.877 -> 1950
11:44:33.877 -> 1955
11:44:33.877 -> 1954
11:44:33.877 -> 1963
11:44:33.877 -> 1968
11:44:33.877 -> 1974
11:44:33.877 -> 1983
11:44:33.877 -> 1986
11:44:33.877 -> 1990
11:44:33.877 -> 1993
11:44:33.877 -> 1995
11:44:33.877 -> 1997
11:44:33.877 -> 1998
11:44:33.877 -> 1997
11:44:33.877 -> 1999
11:44:33.877 -> 1996
11:44:33.877 -> 1998
11:44:33.877 -> 1995
11:44:33.877 -> 1998
11:44:33.877 -> 1999
11:44:33.877 -> 2001
11:44:33.877 -> 2001
11:44:33.877 -> 2007
11:44:33.877 -> 2011
11:44:33.877 -> 2014
11:44:33.877 -> 2017
11:44:33.877 -> 2021
11:44:33.877 -> 2027
11:44:33.877 -> 2032
11:44:33.912 -> 2032
11:44:33.912 -> 2034
11:44:33.912 -> 2034
11:44:33.912 -> 2034
11:44:33.912 -> 2035
11:44:33.912 -> 2033
11:44:33.912 -> 2034
11:44:33.912 -> 2039
11:44:33.912 -> 2046
11:44:33.912 -> 2059
11:44:33.912 -> 2070
11:44:33.912 -> 2090
11:44:33.912 -> 2109
11:44:33.912 -> 2128
11:44:33.912 -> 2149
11:44:33.912 -> 2167
11:44:33.912 -> 2181
11:44:33.912 -> 2195
11:44:33.912 -> 2209
11:44:33.912 -> 2215
11:44:33.912 -> 2222
11:44:33.912 -> 2223
11:44:33.912 -> 2219
11:44:33.912 -> 2207
11:44:33.912 -> 2195
11:44:33.912 -> 2178
11:44:33.912 -> 2161
11:44:33.912 -> 2147
11:44:33.912 -> 2128
11:44:33.912 -> 2115
11:44:33.912 -> 2106
11:44:33.912 -> 2095
11:44:33.947 -> 2090
11:44:33.947 -> 2084
11:44:33.947 -> 2081
11:44:33.947 -> 2078
11:44:33.947 -> 2079
11:44:33.947 -> 2079
11:44:33.947 -> 2081
11:44:33.947 -> 2081
11:44:33.947 -> 2079
11:44:33.947 -> 2069
11:44:33.947 -> 2064
11:44:33.947 -> 2055
11:44:33.947 -> 2033
11:44:33.947 -> 2019
11:44:33.947 -> 2005
11:44:33.947 -> 1993
11:44:33.947 -> 1982
11:44:33.947 -> 1971
11:44:33.947 -> 1967
11:44:33.947 -> 1961
11:44:33.947 -> 1954
11:44:33.947 -> 1953
11:44:33.947 -> 1951
11:44:33.947 -> 1947
11:44:33.947 -> 1941
11:44:33.947 -> 1936
11:44:33.947 -> 1934
11:44:33.947 -> 1926
11:44:33.947 -> 1921
11:44:33.947 -> 1915
11:44:33.947 -> 1906
11:44:33.947 -> 1902
11:44:33.947 -> 1893
11:44:33.947 -> 1888
11:44:33.947 -> 1883
11:44:33.947 -> 1876
11:44:33.947 -> 1872
11:44:33.981 -> 1870
11:44:33.981 -> 1867
11:44:33.981 -> 1863
11:44:33.981 -> 1866
11:44:33.981 -> 1871
11:44:33.981 -> 1873
11:44:33.981 -> 1878
11:44:33.981 -> 1887
11:44:33.981 -> 1889
11:44:33.981 -> 1895
11:44:33.981 -> 1898
11:44:33.981 -> 1899
11:44:33.981 -> 1899
11:44:33.981 -> 1891
11:44:33.981 -> 1886
11:44:33.981 -> 1877
11:44:33.981 -> 1871
11:44:33.981 -> 1863
11:44:33.981 -> 1856
11:44:33.981 -> 1845
11:44:33.981 -> 1838
11:44:33.981 -> 1831
11:44:33.981 -> 1831
11:44:33.981 -> 1825
11:44:33.981 -> 1833
11:44:33.981 -> 1835
11:44:33.981 -> 1839
11:44:33.981 -> 1839
11:44:33.981 -> 1849
11:44:33.981 -> 1857
11:44:33.981 -> 1865
11:44:33.981 -> 1871
11:44:33.981 -> 1878
11:44:34.016 -> 1883
11:44:34.016 -> 1887
11:44:34.016 -> 1891
11:44:34.016 -> 1890
11:44:34.016 -> 1889
11:44:34.016 -> 1885
11:44:34.016 -> 1875
11:44:34.016 -> 1872
11:44:34.016 -> 1867
11:44:34.016 -> 1859
11:44:34.016 -> 1856
11:44:34.016 -> 1855
11:44:34.016 -> 1852
11:44:34.016 -> 1845
11:44:34.016 -> 1839
11:44:34.016 -> 1826
11:44:34.016 -> 1809
11:44:34.016 -> 1796
11:44:34.016 -> 1785
11:44:34.016 -> 1776
11:44:34.016 -> 1774
11:44:34.016 -> 1772
11:44:34.016 -> 1776
11:44:34.016 -> 1783
11:44:34.016 -> 1797
11:44:34.016 -> 1814
11:44:34.016 -> 1837
11:44:34.016 -> 1867
11:44:34.016 -> 1902
11:44:34.016 -> 1937
11:44:34.016 -> 1986
11:44:34.016 -> 2039
11:44:34.048 -> 2106
11:44:34.048 -> 2174
11:44:34.048 -> 2254
11:44:34.048 -> 2341
11:44:34.048 -> 2429
11:44:34.048 -> 2519
11:44:34.048 -> 2614
11:44:34.048 -> 2699
11:44:34.048 -> 2775
11:44:34.048 -> 2847
11:44:34.048 -> 2911
11:44:34.048 -> 2959
11:44:34.048 -> 3007
11:44:34.048 -> 3051
11:44:34.048 -> 3089
11:44:34.048 -> 3127
11:44:34.048 -> 3163
11:44:34.048 -> 3199
11:44:34.048 -> 3245
11:44:34.048 -> 3287
11:44:34.048 -> 3335
11:44:34.048 -> 3371
11:44:34.048 -> 3375
11:44:34.048 -> 3351
11:44:34.048 -> 3315
11:44:34.048 -> 3255
11:44:34.048 -> 3185
11:44:34.048 -> 3103
11:44:34.048 -> 3007
11:44:34.048 -> 2911
11:44:34.048 -> 2815
11:44:34.048 -> 2719
11:44:34.048 -> 2631
11:44:34.048 -> 2541
11:44:34.048 -> 2461
11:44:34.048 -> 2398
11:44:34.048 -> 2350
11:44:34.082 -> 2310
11:44:34.082 -> 2282
11:44:34.082 -> 2263
11:44:34.082 -> 2256
11:44:34.082 -> 2255
11:44:34.082 -> 2255
11:44:34.082 -> 2253
11:44:34.082 -> 2247
11:44:34.082 -> 2243
11:44:34.082 -> 2227
11:44:34.082 -> 2211
11:44:34.082 -> 2191
11:44:34.082 -> 2169
11:44:34.082 -> 2143
11:44:34.082 -> 2117
11:44:34.082 -> 2091
11:44:34.082 -> 2063
11:44:34.082 -> 2026
11:44:34.082 -> 1994
11:44:34.082 -> 1968
11:44:34.082 -> 1939
11:44:34.082 -> 1921
11:44:34.082 -> 1904
11:44:34.082 -> 1895
11:44:34.082 -> 1887
11:44:34.082 -> 1883
11:44:34.082 -> 1877
11:44:34.082 -> 1878
11:44:34.082 -> 1875
11:44:34.082 -> 1872
11:44:34.082 -> 1867
11:44:34.082 -> 1857
11:44:34.082 -> 1847
11:44:34.117 -> 1838
11:44:34.117 -> 1826
11:44:34.117 -> 1809
11:44:34.117 -> 1792
11:44:34.117 -> 1776
11:44:34.117 -> 1764
11:44:34.117 -> 1751
11:44:34.117 -> 1742
11:44:34.117 -> 1731
11:44:34.117 -> 1731
11:44:34.117 -> 1732
11:44:34.117 -> 1739
11:44:34.117 -> 1744
11:44:34.117 -> 1753
11:44:34.117 -> 1766
11:44:34.117 -> 1771
11:44:34.117 -> 1776
11:44:34.117 -> 1778
11:44:34.117 -> 1781
11:44:34.117 -> 1773
11:44:34.117 -> 1766
11:44:34.117 -> 1751
11:44:34.117 -> 1744
11:44:34.117 -> 1731
11:44:34.117 -> 1717
11:44:34.117 -> 1708
11:44:34.117 -> 1697
11:44:34.117 -> 1691
11:44:34.117 -> 1691
11:44:34.117 -> 1695
11:44:34.117 -> 1698
11:44:34.117 -> 1711
11:44:34.117 -> 1719
11:44:34.117 -> 1728
11:44:34.117 -> 1744
11:44:34.117 -> 1750
11:44:34.117 -> 1757
11:44:34.151 -> 1763
11:44:34.151 -> 1770
11:44:34.151 -> 1767
11:44:34.151 -> 1771
11:44:34.151 -> 1766
11:44:34.151 -> 1762
11:44:34.151 -> 1758
11:44:34.151 -> 1755
11:44:34.151 -> 1745
11:44:34.151 -> 1745
11:44:34.151 -> 1744
11:44:34.151 -> 1744
11:44:34.151 -> 1742
11:44:34.151 -> 1745
11:44:34.151 -> 1749
11:44:34.151 -> 1758
11:44:34.151 -> 1763
11:44:34.151 -> 1767
11:44:34.151 -> 1774
11:44:34.151 -> 1777
11:44:34.151 -> 1776
11:44:34.151 -> 1778
11:44:34.151 -> 1779
11:44:34.151 -> 1776
11:44:34.151 -> 1770
11:44:34.151 -> 1762
11:44:34.151 -> 1762
11:44:34.151 -> 1754
11:44:34.151 -> 1757
11:44:34.151 -> 1754
11:44:34.151 -> 1757
11:44:34.151 -> 1756
11:44:34.185 -> 1756
11:44:34.185 -> 1762
11:44:34.185 -> 1763
11:44:34.185 -> 1775
11:44:34.185 -> 1778
11:44:34.185 -> 1781
11:44:34.185 -> 1788
11:44:34.185 -> 1789
11:44:34.185 -> 1793
11:44:34.185 -> 1793
11:44:34.185 -> 1795
11:44:34.185 -> 1792
11:44:34.185 -> 1790
11:44:34.185 -> 1788
11:44:34.185 -> 1778
11:44:34.185 -> 1775
11:44:34.185 -> 1766
11:44:34.185 -> 1763
11:44:34.185 -> 1760
11:44:34.185 -> 1759
11:44:34.185 -> 1763
11:44:34.185 -> 1766
11:44:34.185 -> 1774
11:44:34.185 -> 1779
11:44:34.185 -> 1791
11:44:34.185 -> 1797
11:44:34.185 -> 1808
11:44:34.185 -> 1811
11:44:34.185 -> 1812
11:44:34.185 -> 1814
11:44:34.185 -> 1811
11:44:34.185 -> 1811
11:44:34.185 -> 1813
11:44:34.218 -> 1808
11:44:34.218 -> 1802
11:44:34.218 -> 1791
11:44:34.218 -> 1791
11:44:34.218 -> 1786
11:44:34.218 -> 1783
11:44:34.218 -> 1785
11:44:34.218 -> 1783
11:44:34.218 -> 1790
11:44:34.218 -> 1797
11:44:34.218 -> 1802
11:44:34.218 -> 1812
11:44:34.218 -> 1814
11:44:34.218 -> 1822
11:44:34.218 -> 1825
11:44:34.218 -> 1835
11:44:34.218 -> 1836
11:44:34.218 -> 1839
11:44:34.218 -> 1831
11:44:34.218 -> 1828
11:44:34.218 -> 1824
11:44:34.218 -> 1818
11:44:34.218 -> 1811
11:44:34.218 -> 1809
11:44:34.218 -> 1808
11:44:34.218 -> 1804
11:44:34.218 -> 1807
11:44:34.218 -> 1809
11:44:34.218 -> 1819
11:44:34.218 -> 1826
11:44:34.218 -> 1836
11:44:34.218 -> 1842
11:44:34.252 -> 1855
11:44:34.252 -> 1863
11:44:34.252 -> 1869
11:44:34.252 -> 1873
11:44:34.252 -> 1873
11:44:34.252 -> 1873
11:44:34.252 -> 1872
11:44:34.252 -> 1870
11:44:34.252 -> 1866
11:44:34.252 -> 1863
11:44:34.252 -> 1860
11:44:34.252 -> 1857
11:44:34.252 -> 1856
11:44:34.252 -> 1857
11:44:34.252 -> 1863
11:44:34.252 -> 1869
11:44:34.252 -> 1877
11:44:34.252 -> 1885
11:44:34.252 -> 1902
11:44:34.252 -> 1910
11:44:34.252 -> 1925
11:44:34.252 -> 1933
11:44:34.252 -> 1936
11:44:34.252 -> 1939
11:44:34.252 -> 1940
11:44:34.252 -> 1947
11:44:34.252 -> 1936
11:44:34.252 -> 1932
11:44:34.252 -> 1927
11:44:34.252 -> 1920
11:44:34.252 -> 1919
11:44:34.252 -> 1919
11:44:34.252 -> 1920
11:44:34.252 -> 1923
11:44:34.252 -> 1927
11:44:34.252 -> 1936
11:44:34.252 -> 1945
11:44:34.288 -> 1957
11:44:34.288 -> 1971
11:44:34.288 -> 1985
11:44:34.288 -> 2000
11:44:34.288 -> 2011
11:44:34.288 -> 2019
11:44:34.288 -> 2023
11:44:34.288 -> 2029
11:44:34.288 -> 2032
11:44:34.288 -> 2032
11:44:34.288 -> 2032
11:44:34.288 -> 2032
11:44:34.288 -> 2032
11:44:34.288 -> 2032
11:44:34.288 -> 2031
11:44:34.288 -> 2038
11:44:34.288 -> 2044
11:44:34.288 -> 2055
11:44:34.288 -> 2065
11:44:34.288 -> 2078
11:44:34.288 -> 2089
11:44:34.288 -> 2101
11:44:34.288 -> 2113
11:44:34.288 -> 2128
11:44:34.288 -> 2137
11:44:34.288 -> 2149
11:44:34.288 -> 2158
11:44:34.288 -> 2165
11:44:34.288 -> 2166
11:44:34.288 -> 2169
11:44:34.288 -> 2167
11:44:34.288 -> 2165
11:44:34.288 -> 2161
11:44:34.321 -> 2160
11:44:34.321 -> 2158
11:44:34.321 -> 2158
11:44:34.321 -> 2157
11:44:34.321 -> 2159
11:44:34.321 -> 2161
11:44:34.321 -> 2165
11:44:34.321 -> 2174
11:44:34.321 -> 2181
11:44:34.321 -> 2189
11:44:34.321 -> 2195
11:44:34.321 -> 2198
11:44:34.321 -> 2202
11:44:34.321 -> 2205
11:44:34.321 -> 2199
11:44:34.321 -> 2203
11:44:34.321 -> 2199
11:44:34.321 -> 2197
11:44:34.321 -> 2194
11:44:34.321 -> 2192
11:44:34.321 -> 2192
11:44:34.321 -> 2188
11:44:34.321 -> 2187
11:44:34.321 -> 2189
11:44:34.321 -> 2192
11:44:34.321 -> 2195
11:44:34.321 -> 2203
11:44:34.321 -> 2207
11:44:34.321 -> 2213
11:44:34.321 -> 2216
11:44:34.321 -> 2219
11:44:34.321 -> 2222
11:44:34.321 -> 2223
11:44:34.321 -> 2223
11:44:34.321 -> 2219
11:44:34.321 -> 2209
11:44:34.321 -> 2200
11:44:34.355 -> 2186
11:44:34.355 -> 2173
11:44:34.355 -> 2160
11:44:34.355 -> 2153
11:44:34.355 -> 2143
11:44:34.355 -> 2131
11:44:34.355 -> 2126
11:44:34.355 -> 2119
11:44:34.355 -> 2115
11:44:34.355 -> 2112
11:44:34.355 -> 2109
11:44:34.355 -> 2102
11:44:34.355 -> 2098
11:44:34.355 -> 2090
11:44:34.355 -> 2080
11:44:34.355 -> 2065
11:44:34.355 -> 2047
11:44:34.355 -> 2032
11:44:34.355 -> 2011
11:44:34.355 -> 1994
11:44:34.355 -> 1970
11:44:34.355 -> 1953
11:44:34.355 -> 1935
11:44:34.355 -> 1918
11:44:34.355 -> 1903
11:44:34.355 -> 1889
11:44:34.355 -> 1877
11:44:34.355 -> 1870
11:44:34.355 -> 1860
11:44:34.355 -> 1856
11:44:34.355 -> 1861
11:44:34.355 -> 1855
11:44:34.390 -> 1856
11:44:34.390 -> 1857
11:44:34.390 -> 1860
11:44:34.390 -> 1861
11:44:34.390 -> 1858
11:44:34.390 -> 1856
11:44:34.390 -> 1853
11:44:34.390 -> 1845
11:44:34.390 -> 1842
11:44:34.390 -> 1838
11:44:34.390 -> 1825
11:44:34.390 -> 1813
11:44:34.390 -> 1808
11:44:34.390 -> 1798
11:44:34.390 -> 1791
11:44:34.390 -> 1791
11:44:34.390 -> 1783
11:44:34.390 -> 1782
11:44:34.390 -> 1787
11:44:34.390 -> 1791
11:44:34.390 -> 1793
11:44:34.390 -> 1795
11:44:34.390 -> 1801
11:44:34.390 -> 1804
11:44:34.390 -> 1806
11:44:34.390 -> 1803
11:44:34.390 -> 1798
11:44:34.390 -> 1794
11:44:34.390 -> 1782
11:44:34.390 -> 1777
11:44:34.390 -> 1767
11:44:34.390 -> 1759
11:44:34.390 -> 1756
11:44:34.423 -> 1757
11:44:34.423 -> 1755
11:44:34.423 -> 1760
11:44:34.423 -> 1766
11:44:34.423 -> 1775
11:44:34.423 -> 1776
11:44:34.423 -> 1783
11:44:34.423 -> 1788
11:44:34.423 -> 1789
11:44:34.423 -> 1794
11:44:34.423 -> 1791
11:44:34.423 -> 1790
11:44:34.423 -> 1782
11:44:34.423 -> 1777
11:44:34.423 -> 1770
11:44:34.423 -> 1763
11:44:34.423 -> 1757
11:44:34.423 -> 1751
11:44:34.423 -> 1749
11:44:34.423 -> 1747
11:44:34.423 -> 1747
11:44:34.423 -> 1751
11:44:34.423 -> 1751
11:44:34.423 -> 1761
11:44:34.423 -> 1766
11:44:34.423 -> 1774
11:44:34.423 -> 1779
11:44:34.423 -> 1780
11:44:34.423 -> 1791
11:44:34.423 -> 1791
11:44:34.423 -> 1793
11:44:34.423 -> 1792
11:44:34.423 -> 1793
11:44:34.423 -> 1793
11:44:34.423 -> 1790
11:44:34.423 -> 1789
11:44:34.423 -> 1783
11:44:34.456 -> 1778
11:44:34.456 -> 1776
11:44:34.456 -> 1770
11:44:34.456 -> 1773
11:44:34.456 -> 1771
11:44:34.456 -> 1773
11:44:34.456 -> 1776
11:44:34.456 -> 1782
11:44:34.456 -> 1787
11:44:34.456 -> 1796
11:44:34.456 -> 1802
11:44:34.456 -> 1808
11:44:34.456 -> 1810
11:44:34.456 -> 1817
11:44:34.456 -> 1820
11:44:34.456 -> 1820
11:44:34.456 -> 1821
11:44:34.456 -> 1817
11:44:34.456 -> 1815
11:44:34.456 -> 1811
11:44:34.456 -> 1809
11:44:34.456 -> 1807
11:44:34.456 -> 1804
11:44:34.456 -> 1803
11:44:34.456 -> 1801
11:44:34.456 -> 1802
11:44:34.456 -> 1803
11:44:34.456 -> 1808
11:44:34.456 -> 1812
11:44:34.456 -> 1814
11:44:34.456 -> 1826
11:44:34.456 -> 1828
11:44:34.492 -> 1834
11:44:34.492 -> 1839
11:44:34.492 -> 1840
11:44:34.492 -> 1841
11:44:34.492 -> 1841
11:44:34.492 -> 1837
11:44:34.492 -> 1835
11:44:34.492 -> 1830
11:44:34.492 -> 1824
11:44:34.492 -> 1819
11:44:34.492 -> 1814
11:44:34.492 -> 1809
11:44:34.492 -> 1808
11:44:34.492 -> 1808
11:44:34.492 -> 1809
11:44:34.492 -> 1814
11:44:34.492 -> 1813
11:44:34.492 -> 1824
11:44:34.492 -> 1833
11:44:34.492 -> 1837
11:44:34.492 -> 1841
11:44:34.492 -> 1851
11:44:34.492 -> 1855
11:44:34.492 -> 1857
11:44:34.492 -> 1859
11:44:34.492 -> 1856
11:44:34.492 -> 1855
11:44:34.492 -> 1852
11:44:34.492 -> 1845
11:44:34.492 -> 1842
11:44:34.492 -> 1841
11:44:34.492 -> 1842
11:44:34.492 -> 1847
11:44:34.526 -> 1854
11:44:34.526 -> 1859
11:44:34.526 -> 1869
11:44:34.526 -> 1875
11:44:34.526 -> 1887
11:44:34.526 -> 1894
11:44:34.526 -> 1902
11:44:34.526 -> 1905
11:44:34.526 -> 1907
11:44:34.526 -> 1907
11:44:34.526 -> 1910
11:44:34.526 -> 1909
11:44:34.526 -> 1906
11:44:34.526 -> 1902
11:44:34.526 -> 1899
11:44:34.526 -> 1893
11:44:34.526 -> 1887
11:44:34.526 -> 1883
11:44:34.526 -> 1879
11:44:34.526 -> 1875
11:44:34.526 -> 1874
11:44:34.526 -> 1877
11:44:34.526 -> 1881
11:44:34.526 -> 1887
11:44:34.526 -> 1895
11:44:34.526 -> 1903
11:44:34.526 -> 1905
11:44:34.526 -> 1908
11:44:34.526 -> 1913
11:44:34.526 -> 1915
11:44:34.526 -> 1915
11:44:34.526 -> 1909
11:44:34.526 -> 1900
11:44:34.526 -> 1898
11:44:34.526 -> 1890
11:44:34.526 -> 1881
11:44:34.526 -> 1872
11:44:34.561 -> 1869
11:44:34.561 -> 1862
11:44:34.561 -> 1861
11:44:34.561 -> 1859
11:44:34.561 -> 1858
11:44:34.561 -> 1859
11:44:34.561 -> 1861
11:44:34.561 -> 1869
11:44:34.561 -> 1872
11:44:34.561 -> 1875
11:44:34.561 -> 1881
11:44:34.561 -> 1885
11:44:34.561 -> 1890
11:44:34.561 -> 1894
11:44:34.561 -> 1891
11:44:34.561 -> 1893
11:44:34.561 -> 1893
11:44:34.561 -> 1889
11:44:34.561 -> 1887
11:44:34.561 -> 1877
11:44:34.561 -> 1876
11:44:34.561 -> 1872
11:44:34.561 -> 1869
11:44:34.561 -> 1863
11:44:34.561 -> 1858
11:44:34.561 -> 1858
11:44:34.561 -> 1858
11:44:34.561 -> 1861
11:44:34.561 -> 1862
11:44:34.561 -> 1865
11:44:34.561 -> 1867
11:44:34.561 -> 1871
11:44:34.594 -> 1869
11:44:34.594 -> 1872
11:44:34.594 -> 1871
11:44:34.594 -> 1863
11:44:34.594 -> 1861
11:44:34.594 -> 1857
11:44:34.594 -> 1857
11:44:34.594 -> 1852
11:44:34.594 -> 1845
11:44:34.594 -> 1842
11:44:34.594 -> 1840
11:44:34.594 -> 1840
11:44:34.594 -> 1841
11:44:34.594 -> 1851
11:44:34.594 -> 1856
11:44:34.594 -> 1865
11:44:34.594 -> 1877
11:44:34.594 -> 1886
11:44:34.594 -> 1895
11:44:34.594 -> 1902
11:44:34.594 -> 1904
11:44:34.594 -> 1902
11:44:34.594 -> 1901
11:44:34.594 -> 1898
11:44:34.594 -> 1889
11:44:34.594 -> 1885
11:44:34.594 -> 1877
11:44:34.594 -> 1867
11:44:34.594 -> 1860
11:44:34.594 -> 1855
11:44:34.594 -> 1851
11:44:34.594 -> 1850
11:44:34.594 -> 1853
11:44:34.594 -> 1859
11:44:34.594 -> 1868
11:44:34.594 -> 1875
11:44:34.594 -> 1886
11:44:34.629 -> 1897
11:44:34.629 -> 1904
11:44:34.629 -> 1909
11:44:34.629 -> 1917
11:44:34.629 -> 1919
11:44:34.629 -> 1915
11:44:34.629 -> 1911
11:44:34.629 -> 1905
11:44:34.629 -> 1897
11:44:34.629 -> 1889
11:44:34.629 -> 1875
11:44:34.629 -> 1872
11:44:34.629 -> 1866
11:44:34.629 -> 1859
11:44:34.629 -> 1861
11:44:34.629 -> 1861
11:44:34.629 -> 1868
11:44:34.629 -> 1872
11:44:34.629 -> 1879
11:44:34.629 -> 1892
11:44:34.629 -> 1895
11:44:34.629 -> 1900
11:44:34.629 -> 1901
11:44:34.629 -> 1904
11:44:34.629 -> 1903
11:44:34.629 -> 1905
11:44:34.629 -> 1903
11:44:34.629 -> 1899
11:44:34.629 -> 1898
11:44:34.629 -> 1897
11:44:34.629 -> 1894
11:44:34.629 -> 1893
11:44:34.629 -> 1890
11:44:34.662 -> 1889
11:44:34.662 -> 1890
11:44:34.662 -> 1891
11:44:34.662 -> 1895
11:44:34.662 -> 1902
11:44:34.662 -> 1905
11:44:34.662 -> 1910
11:44:34.662 -> 1913
11:44:34.662 -> 1910
11:44:34.662 -> 1913
11:44:34.662 -> 1915
11:44:34.662 -> 1914
11:44:34.662 -> 1913
11:44:34.662 -> 1909
11:44:34.662 -> 1905
11:44:34.662 -> 1903
11:44:34.662 -> 1899
11:44:34.662 -> 1891
11:44:34.662 -> 1891
11:44:34.662 -> 1889
11:44:34.662 -> 1891
11:44:34.662 -> 1895
11:44:34.662 -> 1900
11:44:34.662 -> 1904
11:44:34.662 -> 1910
11:44:34.662 -> 1919
11:44:34.662 -> 1926
11:44:34.662 -> 1936
11:44:34.662 -> 1943
11:44:34.662 -> 1949
11:44:34.662 -> 1951
11:44:34.662 -> 1951
11:44:34.697 -> 1950
11:44:34.697 -> 1949
11:44:34.697 -> 1938
11:44:34.697 -> 1939
11:44:34.697 -> 1931
11:44:34.697 -> 1926
11:44:34.697 -> 1922
11:44:34.697 -> 1919
11:44:34.697 -> 1920
11:44:34.697 -> 1921
11:44:34.697 -> 1927
11:44:34.697 -> 1934
11:44:34.697 -> 1937
11:44:34.697 -> 1951
11:44:34.697 -> 1954
11:44:34.697 -> 1961
11:44:34.697 -> 1963
11:44:34.697 -> 1966
11:44:34.697 -> 1964
11:44:34.697 -> 1961
11:44:34.697 -> 1955
11:44:34.697 -> 1939
11:44:34.697 -> 1942
11:44:34.697 -> 1936
11:44:34.697 -> 1936
11:44:34.697 -> 1931
11:44:34.697 -> 1925
11:44:34.697 -> 1922
11:44:34.697 -> 1925
11:44:34.697 -> 1925
11:44:34.697 -> 1931
11:44:34.697 -> 1935
11:44:34.697 -> 1938
11:44:34.730 -> 1945
11:44:34.730 -> 1951
11:44:34.730 -> 1959
11:44:34.730 -> 1967
11:44:34.730 -> 1975
11:44:34.730 -> 1979
11:44:34.730 -> 1982
11:44:34.730 -> 1984
11:44:34.730 -> 1983
11:44:34.730 -> 1982
11:44:34.730 -> 1974
11:44:34.730 -> 1963
11:44:34.730 -> 1963
11:44:34.730 -> 1954
11:44:34.730 -> 1949
11:44:34.730 -> 1941
11:44:34.730 -> 1940
11:44:34.730 -> 1936
11:44:34.730 -> 1932
11:44:34.730 -> 1934
11:44:34.730 -> 1938
11:44:34.730 -> 1946
11:44:34.730 -> 1951
11:44:34.730 -> 1959
11:44:34.730 -> 1966
11:44:34.730 -> 1971
11:44:34.730 -> 1979
11:44:34.730 -> 1981
11:44:34.730 -> 1978
11:44:34.730 -> 1978
11:44:34.730 -> 1969
11:44:34.730 -> 1966
11:44:34.730 -> 1953
11:44:34.730 -> 1947
11:44:34.730 -> 1936
11:44:34.730 -> 1931
11:44:34.730 -> 1925
11:44:34.766 -> 1922
11:44:34.766 -> 1926
11:44:34.766 -> 1929
11:44:34.766 -> 1930
11:44:34.766 -> 1935
11:44:34.766 -> 1939
11:44:34.766 -> 1949
11:44:34.766 -> 1950
11:44:34.766 -> 1959
11:44:34.766 -> 1963
11:44:34.766 -> 1968
11:44:34.766 -> 1963
11:44:34.766 -> 1958
11:44:34.766 -> 1957
11:44:34.766 -> 1951
11:44:34.766 -> 1946
11:44:34.766 -> 1938
11:44:34.766 -> 1938
11:44:34.766 -> 1935
11:44:34.766 -> 1937
11:44:34.766 -> 1935
11:44:34.766 -> 1936
11:44:34.766 -> 1936
11:44:34.766 -> 1938
11:44:34.766 -> 1943
11:44:34.766 -> 1951
11:44:34.766 -> 1952
11:44:34.766 -> 1963
11:44:34.766 -> 1966
11:44:34.766 -> 1968
11:44:34.766 -> 1966
11:44:34.766 -> 1967
11:44:34.800 -> 1962
11:44:34.800 -> 1959
11:44:34.800 -> 1957
11:44:34.800 -> 1955
11:44:34.800 -> 1957
11:44:34.800 -> 1952
11:44:34.800 -> 1959
11:44:34.800 -> 1965
11:44:34.800 -> 1965
11:44:34.800 -> 1970
11:44:34.800 -> 1977
11:44:34.800 -> 1984
11:44:34.800 -> 1994
11:44:34.800 -> 1997
11:44:34.800 -> 2005
11:44:34.800 -> 2010
11:44:34.800 -> 2012
11:44:34.800 -> 2015
11:44:34.800 -> 2013
11:44:34.800 -> 2007
11:44:34.800 -> 2000
11:44:34.800 -> 1994
11:44:34.800 -> 1986
11:44:34.800 -> 1971
11:44:34.800 -> 1969
11:44:34.800 -> 1967
11:44:34.800 -> 1961
11:44:34.800 -> 1959
11:44:34.800 -> 1963
11:44:34.800 -> 1963
11:44:34.800 -> 1968
11:44:34.800 -> 1973
11:44:34.800 -> 1978
11:44:34.800 -> 1983
11:44:34.800 -> 1986
11:44:34.800 -> 1989
11:44:34.800 -> 1991
11:44:34.800 -> 1990
11:44:34.833 -> 1990
11:44:34.833 -> 1988
11:44:34.833 -> 1983
11:44:34.833 -> 1979
11:44:34.833 -> 1971
11:44:34.833 -> 1968
11:44:34.833 -> 1965
11:44:34.833 -> 1963
11:44:34.833 -> 1961
11:44:34.833 -> 1965
11:44:34.833 -> 1963
11:44:34.833 -> 1969
11:44:34.833 -> 1973
11:44:34.833 -> 1981
11:44:34.833 -> 1983
11:44:34.833 -> 1987
11:44:34.833 -> 1990
11:44:34.833 -> 1995
11:44:34.833 -> 1994
11:44:34.833 -> 1995
11:44:34.833 -> 1995
11:44:34.833 -> 1995
11:44:34.833 -> 1987
11:44:34.833 -> 1982
11:44:34.833 -> 1975
11:44:34.833 -> 1973
11:44:34.833 -> 1973
11:44:34.833 -> 1975
11:44:34.833 -> 1979
11:44:34.833 -> 1984
11:44:34.833 -> 1991
11:44:34.833 -> 1999
11:44:34.868 -> 2005
11:44:34.868 -> 2015
11:44:34.868 -> 2023
11:44:34.868 -> 2032
11:44:34.868 -> 2039
11:44:34.868 -> 2043
11:44:34.868 -> 2047
11:44:34.868 -> 2055
11:44:34.868 -> 2047
11:44:34.868 -> 2045
11:44:34.868 -> 2035
11:44:34.868 -> 2028
11:44:34.868 -> 2017
11:44:34.868 -> 2004
11:44:34.868 -> 1994
11:44:34.868 -> 1983
11:44:34.868 -> 1975
11:44:34.868 -> 1971
11:44:34.868 -> 1971
11:44:34.868 -> 1973
11:44:34.868 -> 1979
11:44:34.868 -> 1986
11:44:34.868 -> 1998
11:44:34.868 -> 2002
11:44:34.868 -> 2009
11:44:34.868 -> 2021
11:44:34.868 -> 2028
11:44:34.868 -> 2032
11:44:34.868 -> 2032
11:44:34.868 -> 2032
11:44:34.868 -> 2030
11:44:34.868 -> 2025
11:44:34.868 -> 2019
11:44:34.868 -> 2015
11:44:34.868 -> 2007
11:44:34.868 -> 2007
11:44:34.868 -> 2009
11:44:34.902 -> 2011
11:44:34.902 -> 2013
11:44:34.902 -> 2015
11:44:34.902 -> 2018
11:44:34.902 -> 2023
11:44:34.902 -> 2023
11:44:34.902 -> 2030
11:44:34.902 -> 2031
11:44:34.902 -> 2032
11:44:34.902 -> 2031
11:44:34.902 -> 2029
11:44:34.902 -> 2022
11:44:34.902 -> 2018
11:44:34.902 -> 2007
11:44:34.902 -> 2001
11:44:34.902 -> 1997
11:44:34.902 -> 1990
11:44:34.902 -> 1989
11:44:34.902 -> 1987
11:44:34.902 -> 1985
11:44:34.902 -> 1983
11:44:34.902 -> 1985
11:44:34.902 -> 1991
11:44:34.902 -> 1998
11:44:34.902 -> 2002
11:44:34.902 -> 2010
11:44:34.902 -> 2018
11:44:34.902 -> 2028
11:44:34.902 -> 2030
11:44:34.902 -> 2031
11:44:34.902 -> 2032
11:44:34.902 -> 2025
11:44:34.902 -> 2014
11:44:34.937 -> 2006
11:44:34.937 -> 1995
11:44:34.937 -> 1983
11:44:34.937 -> 1968
11:44:34.937 -> 1961
11:44:34.937 -> 1952
11:44:34.937 -> 1947
11:44:34.937 -> 1943
11:44:34.937 -> 1949
11:44:34.937 -> 1959
11:44:34.937 -> 1968
11:44:34.937 -> 1975
11:44:34.937 -> 1985
11:44:34.937 -> 1994
11:44:34.937 -> 1998
11:44:34.937 -> 2000
11:44:34.937 -> 2000
11:44:34.937 -> 1999
11:44:34.937 -> 1999
11:44:34.937 -> 1991
11:44:34.937 -> 1984
11:44:34.937 -> 1979
11:44:34.937 -> 1971
11:44:34.937 -> 1968
11:44:34.937 -> 1963
11:44:34.937 -> 1957
11:44:34.937 -> 1956
11:44:34.937 -> 1955
11:44:34.937 -> 1955
11:44:34.937 -> 1959
11:44:34.937 -> 1965
11:44:34.937 -> 1969
11:44:34.972 -> 1975
11:44:34.972 -> 1983
11:44:34.972 -> 1987
11:44:34.972 -> 1990
11:44:34.972 -> 1994
11:44:34.972 -> 1991
11:44:34.972 -> 1987
11:44:34.972 -> 1987
11:44:34.972 -> 1981
11:44:34.972 -> 1974
11:44:34.972 -> 1968
11:44:34.972 -> 1963
11:44:34.972 -> 1955
11:44:34.972 -> 1950
11:44:34.972 -> 1941
11:44:34.972 -> 1939
11:44:34.972 -> 1941
11:44:34.972 -> 1946
11:44:34.972 -> 1951
11:44:34.972 -> 1966
11:44:34.972 -> 1973
11:44:34.972 -> 1981
11:44:34.972 -> 1993
11:44:34.972 -> 2000
11:44:34.972 -> 2010
11:44:34.972 -> 2013
11:44:34.972 -> 2011
11:44:34.972 -> 2007
11:44:34.972 -> 2001
11:44:34.972 -> 1998
11:44:34.972 -> 1991
11:44:34.972 -> 1982
11:44:34.972 -> 1972
11:44:34.972 -> 1968
11:44:34.972 -> 1965
11:44:34.972 -> 1961
11:44:34.972 -> 1961
11:44:35.005 -> 1968
11:44:35.005 -> 1973
11:44:35.005 -> 1983
11:44:35.005 -> 1998
11:44:35.005 -> 2005
11:44:35.005 -> 2018
11:44:35.005 -> 2032
11:44:35.005 -> 2039
11:44:35.005 -> 2045
11:44:35.005 -> 2045
11:44:35.005 -> 2041
11:44:35.005 -> 2032
11:44:35.005 -> 2027
11:44:35.005 -> 2019
11:44:35.005 -> 2012
11:44:35.005 -> 2005
11:44:35.005 -> 2003
11:44:35.005 -> 2003
11:44:35.005 -> 2010
11:44:35.005 -> 2015
11:44:35.005 -> 2025
11:44:35.005 -> 2032
11:44:35.005 -> 2038
11:44:35.005 -> 2060
11:44:35.005 -> 2063
11:44:35.005 -> 2067
11:44:35.005 -> 2070
11:44:35.005 -> 2075
11:44:35.005 -> 2075
11:44:35.005 -> 2073
11:44:35.005 -> 2071
11:44:35.005 -> 2065
11:44:35.005 -> 2063
11:44:35.042 -> 2063
11:44:35.042 -> 2064
11:44:35.042 -> 2064
11:44:35.042 -> 2073
11:44:35.042 -> 2084
11:44:35.042 -> 2099
11:44:35.042 -> 2118
11:44:35.042 -> 2141
11:44:35.042 -> 2161
11:44:35.042 -> 2183
11:44:35.042 -> 2209
11:44:35.042 -> 2219
11:44:35.042 -> 2230
11:44:35.042 -> 2235
11:44:35.042 -> 2237
11:44:35.042 -> 2230
11:44:35.042 -> 2225
11:44:35.042 -> 2218
11:44:35.042 -> 2202
11:44:35.042 -> 2185
11:44:35.042 -> 2167
11:44:35.042 -> 2157
11:44:35.042 -> 2137
11:44:35.042 -> 2127
11:44:35.042 -> 2113
11:44:35.042 -> 2107
11:44:35.042 -> 2102
11:44:35.042 -> 2101
11:44:35.042 -> 2099
11:44:35.042 -> 2100
11:44:35.042 -> 2097
11:44:35.042 -> 2100
11:44:35.042 -> 2099
11:44:35.042 -> 2097
11:44:35.042 -> 2095
11:44:35.042 -> 2087
11:44:35.042 -> 2079
11:44:35.076 -> 2068
11:44:35.076 -> 2059
11:44:35.076 -> 2042
11:44:35.076 -> 2032
11:44:35.076 -> 2024
11:44:35.076 -> 2012
11:44:35.076 -> 2005
11:44:35.076 -> 2000
11:44:35.076 -> 2000
11:44:35.076 -> 2001
11:44:35.076 -> 2003
11:44:35.076 -> 2013
11:44:35.076 -> 2006
11:44:35.076 -> 2009
11:44:35.076 -> 2001
11:44:35.076 -> 2001
11:44:35.076 -> 1995
11:44:35.076 -> 1984
11:44:35.076 -> 1974
11:44:35.076 -> 1967
11:44:35.076 -> 1955
11:44:35.076 -> 1946
11:44:35.076 -> 1937
11:44:35.076 -> 1930
11:44:35.076 -> 1921
11:44:35.076 -> 1917
11:44:35.076 -> 1911
11:44:35.076 -> 1906
11:44:35.076 -> 1904
11:44:35.076 -> 1902
11:44:35.076 -> 1903
11:44:35.076 -> 1906
11:44:35.109 -> 1908
11:44:35.109 -> 1914
11:44:35.109 -> 1920
11:44:35.109 -> 1926
11:44:35.109 -> 1930
11:44:35.109 -> 1931
11:44:35.109 -> 1927
11:44:35.109 -> 1920
11:44:35.109 -> 1919
11:44:35.109 -> 1910
11:44:35.109 -> 1904
11:44:35.109 -> 1894
11:44:35.109 -> 1887
11:44:35.109 -> 1881
11:44:35.109 -> 1872
11:44:35.109 -> 1872
11:44:35.109 -> 1871
11:44:35.109 -> 1871
11:44:35.109 -> 1873
11:44:35.109 -> 1878
11:44:35.109 -> 1885
11:44:35.109 -> 1892
11:44:35.109 -> 1904
11:44:35.109 -> 1910
11:44:35.109 -> 1917
11:44:35.109 -> 1919
11:44:35.109 -> 1920
11:44:35.109 -> 1919
11:44:35.109 -> 1919
11:44:35.109 -> 1915
11:44:35.109 -> 1909
11:44:35.109 -> 1904
11:44:35.109 -> 1903
11:44:35.109 -> 1893
11:44:35.109 -> 1890
11:44:35.109 -> 1881
11:44:35.109 -> 1875
11:44:35.142 -> 1871
11:44:35.142 -> 1867
11:44:35.142 -> 1860
11:44:35.142 -> 1850
11:44:35.142 -> 1837
11:44:35.142 -> 1818
11:44:35.142 -> 1804
11:44:35.142 -> 1790
11:44:35.142 -> 1779
11:44:35.142 -> 1777
11:44:35.142 -> 1779
11:44:35.142 -> 1780
11:44:35.142 -> 1789
11:44:35.142 -> 1803
11:44:35.142 -> 1818
11:44:35.142 -> 1840
11:44:35.142 -> 1862
11:44:35.142 -> 1891
11:44:35.142 -> 1929
11:44:35.142 -> 1968
11:44:35.142 -> 2021
11:44:35.142 -> 2086
11:44:35.142 -> 2155
11:44:35.142 -> 2227
11:44:35.142 -> 2315
11:44:35.142 -> 2407
11:44:35.142 -> 2500
11:44:35.142 -> 2606
11:44:35.142 -> 2699
11:44:35.142 -> 2783
11:44:35.142 -> 2863
11:44:35.142 -> 2927
11:44:35.142 -> 2989
11:44:35.177 -> 3039
11:44:35.177 -> 3095
11:44:35.177 -> 3139
11:44:35.177 -> 3185
11:44:35.177 -> 3239
11:44:35.177 -> 3286
11:44:35.177 -> 3345
11:44:35.177 -> 3411
11:44:35.177 -> 3471
11:44:35.177 -> 3519
11:44:35.177 -> 3549
11:44:35.177 -> 3551
11:44:35.177 -> 3531
11:44:35.177 -> 3477
11:44:35.177 -> 3403
11:44:35.177 -> 3317
11:44:35.177 -> 3217
11:44:35.177 -> 3115
11:44:35.177 -> 2997
11:44:35.177 -> 2890
11:44:35.177 -> 2783
11:44:35.177 -> 2691
11:44:35.177 -> 2607
11:44:35.177 -> 2525
11:44:35.177 -> 2463
11:44:35.177 -> 2417
11:44:35.177 -> 2379
11:44:35.177 -> 2353
11:44:35.177 -> 2331
11:44:35.177 -> 2319
11:44:35.177 -> 2307
11:44:35.177 -> 2299
11:44:35.211 -> 2290
11:44:35.211 -> 2276
11:44:35.211 -> 2257
11:44:35.211 -> 2239
11:44:35.211 -> 2219
11:44:35.211 -> 2192
11:44:35.211 -> 2160
11:44:35.211 -> 2127
11:44:35.211 -> 2095
11:44:35.211 -> 2058
11:44:35.211 -> 2015
11:44:35.211 -> 1979
11:44:35.211 -> 1953
11:44:35.211 -> 1922
11:44:35.211 -> 1904
11:44:35.211 -> 1887
11:44:35.211 -> 1878
11:44:35.211 -> 1872
11:44:35.211 -> 1869
11:44:35.211 -> 1858
11:44:35.211 -> 1851
11:44:35.211 -> 1842
11:44:35.211 -> 1835
11:44:35.211 -> 1825
11:44:35.211 -> 1814
11:44:35.211 -> 1806
11:44:35.211 -> 1792
11:44:35.211 -> 1777
11:44:35.211 -> 1765
11:44:35.211 -> 1753
11:44:35.211 -> 1742
11:44:35.211 -> 1728
11:44:35.211 -> 1718
11:44:35.211 -> 1712
11:44:35.211 -> 1710
11:44:35.211 -> 1712
11:44:35.211 -> 1713
11:44:35.246 -> 1719
11:44:35.246 -> 1728
11:44:35.246 -> 1738
11:44:35.246 -> 1741
11:44:35.246 -> 1744
11:44:35.246 -> 1749
11:44:35.246 -> 1751
11:44:35.246 -> 1747
11:44:35.246 -> 1745
11:44:35.246 -> 1741
11:44:35.246 -> 1733
11:44:35.246 -> 1723
11:44:35.246 -> 1713
11:44:35.246 -> 1705
11:44:35.246 -> 1698
11:44:35.246 -> 1686
11:44:35.246 -> 1685
11:44:35.246 -> 1682
11:44:35.246 -> 1682
11:44:35.246 -> 1686
11:44:35.246 -> 1695
11:44:35.246 -> 1701
11:44:35.246 -> 1712
11:44:35.246 -> 1713
11:44:35.246 -> 1722
11:44:35.246 -> 1728
11:44:35.246 -> 1731
11:44:35.246 -> 1735
11:44:35.246 -> 1735
11:44:35.246 -> 1732
11:44:35.246 -> 1731
11:44:35.246 -> 1726
11:44:35.246 -> 1722
11:44:35.280 -> 1722
11:44:35.280 -> 1719
11:44:35.280 -> 1715
11:44:35.280 -> 1716
11:44:35.280 -> 1715
11:44:35.280 -> 1716
11:44:35.280 -> 1713
11:44:35.280 -> 1722
11:44:35.280 -> 1727
11:44:35.280 -> 1730
11:44:35.280 -> 1741
11:44:35.280 -> 1744
11:44:35.280 -> 1747
11:44:35.280 -> 1753
11:44:35.280 -> 1747
11:44:35.280 -> 1748
11:44:35.280 -> 1741
11:44:35.280 -> 1736
11:44:35.280 -> 1729
11:44:35.280 -> 1722
11:44:35.280 -> 1718
11:44:35.280 -> 1713
11:44:35.280 -> 1711
11:44:35.280 -> 1712
11:44:35.280 -> 1711
11:44:35.280 -> 1712
11:44:35.280 -> 1714
11:44:35.280 -> 1719
11:44:35.280 -> 1722
11:44:35.280 -> 1726
11:44:35.280 -> 1730
11:44:35.280 -> 1734
11:44:35.314 -> 1737
11:44:35.314 -> 1740
11:44:35.314 -> 1739
11:44:35.314 -> 1738
11:44:35.314 -> 1735
11:44:35.314 -> 1730
11:44:35.314 -> 1727
11:44:35.314 -> 1722
11:44:35.314 -> 1717
11:44:35.314 -> 1714
11:44:35.314 -> 1713
11:44:35.314 -> 1715
11:44:35.314 -> 1718
11:44:35.314 -> 1729
11:44:35.314 -> 1733
11:44:35.314 -> 1744
11:44:35.314 -> 1751
11:44:35.314 -> 1762
11:44:35.314 -> 1773
11:44:35.314 -> 1777
11:44:35.314 -> 1786
11:44:35.314 -> 1788
11:44:35.314 -> 1791
11:44:35.314 -> 1789
11:44:35.314 -> 1789
11:44:35.314 -> 1781
11:44:35.314 -> 1776
11:44:35.314 -> 1775
11:44:35.314 -> 1771
11:44:35.314 -> 1769
11:44:35.314 -> 1770
11:44:35.314 -> 1773
11:44:35.314 -> 1776
11:44:35.314 -> 1783
11:44:35.314 -> 1789
11:44:35.314 -> 1793
11:44:35.314 -> 1799
11:44:35.348 -> 1808
11:44:35.348 -> 1815
11:44:35.348 -> 1823
11:44:35.348 -> 1832
11:44:35.348 -> 1838
11:44:35.348 -> 1840
11:44:35.348 -> 1840
11:44:35.348 -> 1838
11:44:35.348 -> 1834
11:44:35.348 -> 1838
11:44:35.348 -> 1839
11:44:35.348 -> 1839
11:44:35.348 -> 1836
11:44:35.348 -> 1838
11:44:35.348 -> 1840
11:44:35.348 -> 1841
11:44:35.348 -> 1845
11:44:35.348 -> 1851
11:44:35.348 -> 1857
11:44:35.348 -> 1859
11:44:35.348 -> 1862
11:44:35.348 -> 1866
11:44:35.348 -> 1869
11:44:35.348 -> 1870
11:44:35.348 -> 1868
11:44:35.348 -> 1867
11:44:35.348 -> 1861
11:44:35.348 -> 1855
11:44:35.348 -> 1858
11:44:35.348 -> 1855
11:44:35.348 -> 1847
11:44:35.348 -> 1846
11:44:35.348 -> 1847
11:44:35.380 -> 1845
11:44:35.380 -> 1847
11:44:35.380 -> 1855
11:44:35.380 -> 1860
11:44:35.380 -> 1867
11:44:35.380 -> 1874
11:44:35.380 -> 1892
11:44:35.380 -> 1901
11:44:35.380 -> 1914
11:44:35.380 -> 1923
11:44:35.380 -> 1935
11:44:35.380 -> 1939
11:44:35.380 -> 1946
11:44:35.380 -> 1944
11:44:35.380 -> 1940
11:44:35.380 -> 1946
11:44:35.380 -> 1943
11:44:35.380 -> 1945
11:44:35.380 -> 1947
11:44:35.380 -> 1951
11:44:35.380 -> 1952
11:44:35.380 -> 1956
11:44:35.380 -> 1965
11:44:35.380 -> 1971
11:44:35.380 -> 1979
11:44:35.380 -> 1989
11:44:35.380 -> 2000
11:44:35.380 -> 2006
11:44:35.380 -> 2017
11:44:35.380 -> 2028
11:44:35.380 -> 2032
11:44:35.380 -> 2037
11:44:35.416 -> 2039
11:44:35.416 -> 2043
11:44:35.416 -> 2045
11:44:35.416 -> 2047
11:44:35.416 -> 2047
11:44:35.416 -> 2055
11:44:35.416 -> 2059
11:44:35.416 -> 2059
11:44:35.416 -> 2062
11:44:35.416 -> 2059
11:44:35.416 -> 2061
11:44:35.416 -> 2064
11:44:35.416 -> 2076
11:44:35.416 -> 2090
11:44:35.416 -> 2098
11:44:35.416 -> 2113
11:44:35.416 -> 2126
11:44:35.416 -> 2139
11:44:35.416 -> 2150
11:44:35.416 -> 2160
11:44:35.416 -> 2166
11:44:35.416 -> 2171
11:44:35.416 -> 2171
11:44:35.416 -> 2174
11:44:35.416 -> 2173
11:44:35.416 -> 2173
11:44:35.416 -> 2173
11:44:35.416 -> 2171
11:44:35.416 -> 2170
11:44:35.416 -> 2167
11:44:35.416 -> 2171
11:44:35.416 -> 2175
11:44:35.416 -> 2183
11:44:35.416 -> 2192
11:44:35.416 -> 2199
11:44:35.416 -> 2214
11:44:35.416 -> 2224
11:44:35.449 -> 2239
11:44:35.449 -> 2253
11:44:35.449 -> 2258
11:44:35.449 -> 2263
11:44:35.449 -> 2273
11:44:35.449 -> 2275
11:44:35.449 -> 2275
11:44:35.449 -> 2271
11:44:35.449 -> 2267
11:44:35.449 -> 2261
11:44:35.449 -> 2256
11:44:35.449 -> 2253
11:44:35.449 -> 2253
11:44:35.449 -> 2251
11:44:35.449 -> 2256
11:44:35.449 -> 2256
11:44:35.449 -> 2262
11:44:35.449 -> 2267
11:44:35.449 -> 2273
11:44:35.449 -> 2271
11:44:35.449 -> 2279
11:44:35.449 -> 2286
11:44:35.449 -> 2287
11:44:35.449 -> 2287
11:44:35.449 -> 2283
11:44:35.449 -> 2273
11:44:35.449 -> 2257
11:44:35.449 -> 2243
11:44:35.449 -> 2227
11:44:35.449 -> 2209
11:44:35.449 -> 2191
11:44:35.449 -> 2175
11:44:35.449 -> 2160
11:44:35.483 -> 2145
11:44:35.483 -> 2131
11:44:35.483 -> 2125
11:44:35.483 -> 2113
11:44:35.483 -> 2109
11:44:35.483 -> 2103
11:44:35.483 -> 2101
11:44:35.483 -> 2096
11:44:35.483 -> 2093
11:44:35.483 -> 2082
11:44:35.483 -> 2068
11:44:35.483 -> 2047
11:44:35.483 -> 2035
11:44:35.483 -> 2018
11:44:35.483 -> 2000
11:44:35.483 -> 1987
11:44:35.483 -> 1973
11:44:35.483 -> 1962
11:44:35.483 -> 1951
11:44:35.483 -> 1941
11:44:35.483 -> 1936
11:44:35.483 -> 1931
11:44:35.483 -> 1926
11:44:35.483 -> 1930
11:44:35.483 -> 1934
11:44:35.483 -> 1935
11:44:35.483 -> 1935
11:44:35.483 -> 1936
11:44:35.483 -> 1933
11:44:35.483 -> 1925
11:44:35.483 -> 1918
11:44:35.483 -> 1905
11:44:35.518 -> 1895
11:44:35.518 -> 1879
11:44:35.518 -> 1866
11:44:35.518 -> 1850
11:44:35.518 -> 1840
11:44:35.518 -> 1825
11:44:35.518 -> 1817
11:44:35.518 -> 1809
11:44:35.518 -> 1801
11:44:35.518 -> 1799
11:44:35.518 -> 1798
11:44:35.518 -> 1799
11:44:35.518 -> 1803
11:44:35.518 -> 1808
11:44:35.518 -> 1811
11:44:35.518 -> 1821
11:44:35.518 -> 1826
11:44:35.518 -> 1829
11:44:35.518 -> 1837
11:44:35.518 -> 1833
11:44:35.518 -> 1831
11:44:35.518 -> 1825
11:44:35.518 -> 1815
11:44:35.518 -> 1808
11:44:35.518 -> 1807
11:44:35.518 -> 1793
11:44:35.518 -> 1787
11:44:35.518 -> 1779
11:44:35.518 -> 1779
11:44:35.518 -> 1777
11:44:35.518 -> 1779
11:44:35.518 -> 1788
11:44:35.518 -> 1793
11:44:35.518 -> 1806
11:44:35.518 -> 1809
11:44:35.518 -> 1818
11:44:35.518 -> 1821
11:44:35.551 -> 1825
11:44:35.551 -> 1829
11:44:35.551 -> 1827
11:44:35.551 -> 1826
11:44:35.551 -> 1824
11:44:35.551 -> 1822
11:44:35.551 -> 1815
11:44:35.551 -> 1813
11:44:35.551 -> 1810
11:44:35.551 -> 1808
11:44:35.551 -> 1807
11:44:35.551 -> 1802
11:44:35.551 -> 1799
11:44:35.551 -> 1805
11:44:35.551 -> 1805
11:44:35.551 -> 1810
11:44:35.551 -> 1817
11:44:35.551 -> 1824
11:44:35.551 -> 1831
11:44:35.551 -> 1834
11:44:35.551 -> 1839
11:44:35.551 -> 1842
11:44:35.551 -> 1843
11:44:35.551 -> 1843
11:44:35.551 -> 1841
11:44:35.551 -> 1839
11:44:35.551 -> 1840
11:44:35.551 -> 1836
11:44:35.551 -> 1833
11:44:35.551 -> 1830
11:44:35.551 -> 1833
11:44:35.551 -> 1835
11:44:35.551 -> 1839
11:44:35.585 -> 1843
11:44:35.585 -> 1849
11:44:35.585 -> 1856
11:44:35.585 -> 1863
11:44:35.585 -> 1870
11:44:35.585 -> 1873
11:44:35.585 -> 1875
11:44:35.585 -> 1879
11:44:35.585 -> 1878
11:44:35.585 -> 1877
11:44:35.585 -> 1872
11:44:35.585 -> 1869
11:44:35.585 -> 1861
11:44:35.585 -> 1851
11:44:35.585 -> 1846
11:44:35.585 -> 1840
11:44:35.585 -> 1837
11:44:35.585 -> 1837
11:44:35.585 -> 1840
11:44:35.585 -> 1843
11:44:35.585 -> 1853
11:44:35.585 -> 1862
11:44:35.585 -> 1872
11:44:35.585 -> 1879
11:44:35.585 -> 1888
11:44:35.585 -> 1895
11:44:35.585 -> 1903
11:44:35.585 -> 1910
11:44:35.585 -> 1907
11:44:35.585 -> 1917
11:44:35.585 -> 1915
11:44:35.585 -> 1910
11:44:35.620 -> 1907
11:44:35.620 -> 1905
11:44:35.620 -> 1902
11:44:35.620 -> 1893
11:44:35.620 -> 1892
11:44:35.620 -> 1889
11:44:35.620 -> 1891
11:44:35.620 -> 1897
11:44:35.620 -> 1904
11:44:35.620 -> 1911
11:44:35.620 -> 1914
11:44:35.620 -> 1919
11:44:35.620 -> 1927
11:44:35.620 -> 1933
11:44:35.620 -> 1939
11:44:35.620 -> 1939
11:44:35.620 -> 1942
11:44:35.620 -> 1941
11:44:35.620 -> 1936
11:44:35.620 -> 1927
11:44:35.620 -> 1921
11:44:35.620 -> 1913
11:44:35.620 -> 1906
11:44:35.620 -> 1903
11:44:35.620 -> 1898
11:44:35.620 -> 1895
11:44:35.620 -> 1897
11:44:35.620 -> 1901
11:44:35.620 -> 1904
11:44:35.620 -> 1907
11:44:35.620 -> 1915
11:44:35.620 -> 1921
11:44:35.620 -> 1927
11:44:35.620 -> 1935
11:44:35.620 -> 1936
11:44:35.620 -> 1939
11:44:35.620 -> 1939
11:44:35.654 -> 1937
11:44:35.654 -> 1936
11:44:35.654 -> 1933
11:44:35.654 -> 1925
11:44:35.654 -> 1919
11:44:35.654 -> 1917
11:44:35.654 -> 1904
11:44:35.654 -> 1903
11:44:35.654 -> 1899
11:44:35.654 -> 1894
11:44:35.654 -> 1897
11:44:35.654 -> 1894
11:44:35.654 -> 1900
11:44:35.654 -> 1902
11:44:35.654 -> 1904
11:44:35.654 -> 1906
11:44:35.654 -> 1907
11:44:35.654 -> 1911
11:44:35.654 -> 1913
11:44:35.654 -> 1910
11:44:35.654 -> 1906
11:44:35.654 -> 1903
11:44:35.654 -> 1898
11:44:35.654 -> 1891
11:44:35.654 -> 1882
11:44:35.654 -> 1879
11:44:35.654 -> 1873
11:44:35.654 -> 1873
11:44:35.654 -> 1873
11:44:35.654 -> 1876
11:44:35.654 -> 1877
11:44:35.654 -> 1883
11:44:35.654 -> 1887
11:44:35.687 -> 1898
11:44:35.687 -> 1904
11:44:35.687 -> 1911
11:44:35.687 -> 1919
11:44:35.687 -> 1925
11:44:35.687 -> 1931
11:44:35.687 -> 1936
11:44:35.687 -> 1937
11:44:35.687 -> 1939
11:44:35.687 -> 1939
11:44:35.687 -> 1936
11:44:35.687 -> 1937
11:44:35.687 -> 1933
11:44:35.687 -> 1934
11:44:35.687 -> 1931
11:44:35.687 -> 1930
11:44:35.687 -> 1932
11:44:35.687 -> 1934
11:44:35.687 -> 1936
11:44:35.687 -> 1941
11:44:35.687 -> 1947
11:44:35.687 -> 1953
11:44:35.687 -> 1957
11:44:35.687 -> 1963
11:44:35.687 -> 1964
11:44:35.687 -> 1965
11:44:35.687 -> 1965
11:44:35.687 -> 1955
11:44:35.687 -> 1959
11:44:35.687 -> 1955
11:44:35.687 -> 1954
11:44:35.687 -> 1949
11:44:35.721 -> 1945
11:44:35.721 -> 1949
11:44:35.721 -> 1941
11:44:35.721 -> 1943
11:44:35.721 -> 1945
11:44:35.721 -> 1949
11:44:35.721 -> 1953
11:44:35.721 -> 1961
11:44:35.721 -> 1967
11:44:35.721 -> 1968
11:44:35.721 -> 1983
11:44:35.721 -> 1981
11:44:35.721 -> 1979
11:44:35.721 -> 1979
11:44:35.721 -> 1977
11:44:35.721 -> 1973
11:44:35.721 -> 1968
11:44:35.721 -> 1965
11:44:35.721 -> 1957
11:44:35.721 -> 1950
11:44:35.721 -> 1943
11:44:35.721 -> 1936
11:44:35.721 -> 1935
11:44:35.721 -> 1931
11:44:35.721 -> 1929
11:44:35.721 -> 1927
11:44:35.721 -> 1935
11:44:35.721 -> 1941
11:44:35.721 -> 1950
11:44:35.721 -> 1959
11:44:35.721 -> 1968
11:44:35.721 -> 1975
11:44:35.721 -> 1983
11:44:35.755 -> 1986
11:44:35.755 -> 1994
11:44:35.755 -> 1994
11:44:35.755 -> 1993
11:44:35.755 -> 1990
11:44:35.755 -> 1989
11:44:35.755 -> 1985
11:44:35.755 -> 1983
11:44:35.755 -> 1982
11:44:35.755 -> 1980
11:44:35.755 -> 1977
11:44:35.755 -> 1979
11:44:35.755 -> 1984
11:44:35.755 -> 1989
11:44:35.755 -> 1996
11:44:35.755 -> 2001
11:44:35.755 -> 2006
11:44:35.755 -> 2015
11:44:35.755 -> 2027
11:44:35.755 -> 2031
11:44:35.755 -> 2033
11:44:35.755 -> 2035
11:44:35.755 -> 2034
11:44:35.755 -> 2027
11:44:35.755 -> 2018
11:44:35.755 -> 2003
11:44:35.755 -> 1997
11:44:35.755 -> 1990
11:44:35.755 -> 1984
11:44:35.755 -> 1977
11:44:35.755 -> 1974
11:44:35.755 -> 1973
11:44:35.755 -> 1975
11:44:35.755 -> 1983
11:44:35.755 -> 1991
11:44:35.755 -> 1995
11:44:35.755 -> 2000
11:44:35.790 -> 2007
11:44:35.790 -> 2013
11:44:35.790 -> 2023
11:44:35.790 -> 2029
11:44:35.790 -> 2031
11:44:35.790 -> 2032
11:44:35.790 -> 2031
11:44:35.790 -> 2025
11:44:35.790 -> 2019
11:44:35.790 -> 2015
11:44:35.790 -> 2009
11:44:35.790 -> 2003
11:44:35.790 -> 1999
11:44:35.790 -> 1997
11:44:35.790 -> 1995
11:44:35.790 -> 1995
11:44:35.790 -> 1999
11:44:35.790 -> 2007
11:44:35.790 -> 2014
11:44:35.790 -> 2023
11:44:35.790 -> 2030
11:44:35.790 -> 2035
11:44:35.790 -> 2046
11:44:35.790 -> 2047
11:44:35.790 -> 2058
11:44:35.790 -> 2060
11:44:35.790 -> 2055
11:44:35.790 -> 2046
11:44:35.790 -> 2037
11:44:35.790 -> 2031
11:44:35.790 -> 2019
11:44:35.790 -> 2007
11:44:35.823 -> 1999
11:44:35.823 -> 1993
11:44:35.823 -> 1985
11:44:35.823 -> 1984
11:44:35.823 -> 1986
11:44:35.823 -> 1990
11:44:35.823 -> 1995
11:44:35.823 -> 2001
11:44:35.823 -> 2007
11:44:35.823 -> 2011
11:44:35.823 -> 2014
11:44:35.823 -> 2014
11:44:35.823 -> 2009
11:44:35.823 -> 2007
11:44:35.823 -> 2011
11:44:35.823 -> 2000
11:44:35.823 -> 2000
11:44:35.823 -> 1995
11:44:35.823 -> 1994
11:44:35.823 -> 1994
11:44:35.823 -> 1994
11:44:35.823 -> 1998
11:44:35.823 -> 1999
11:44:35.823 -> 2001
11:44:35.823 -> 2007
11:44:35.823 -> 2011
11:44:35.823 -> 2018
11:44:35.823 -> 2027
11:44:35.823 -> 2032
11:44:35.823 -> 2033
11:44:35.823 -> 2042
11:44:35.823 -> 2045
11:44:35.823 -> 2043
11:44:35.823 -> 2042
11:44:35.823 -> 2039
11:44:35.823 -> 2037
11:44:35.823 -> 2031
11:44:35.858 -> 2019
11:44:35.858 -> 2011
11:44:35.858 -> 2010
11:44:35.858 -> 2004
11:44:35.858 -> 2003
11:44:35.858 -> 2002
11:44:35.858 -> 2003
11:44:35.858 -> 2009
11:44:35.858 -> 2015
11:44:35.858 -> 2019
11:44:35.858 -> 2022
11:44:35.858 -> 2025
11:44:35.858 -> 2030
11:44:35.858 -> 2031
11:44:35.858 -> 2031
11:44:35.858 -> 2029
11:44:35.858 -> 2023
11:44:35.858 -> 2019
11:44:35.858 -> 2013
11:44:35.858 -> 2001
11:44:35.858 -> 1998
11:44:35.858 -> 1990
11:44:35.858 -> 1985
11:44:35.858 -> 1981
11:44:35.858 -> 1981
11:44:35.858 -> 1981
11:44:35.858 -> 1983
11:44:35.858 -> 1989
11:44:35.858 -> 1999
11:44:35.858 -> 2005
11:44:35.858 -> 2011
11:44:35.858 -> 2018
11:44:35.858 -> 2023
11:44:35.892 -> 2026
11:44:35.892 -> 2027
11:44:35.892 -> 2027
11:44:35.892 -> 2023
11:44:35.892 -> 2020
11:44:35.892 -> 2016
11:44:35.892 -> 2013
11:44:35.892 -> 2010
11:44:35.892 -> 2000
11:44:35.892 -> 1995
11:44:35.892 -> 1993
11:44:35.892 -> 1994
11:44:35.892 -> 1991
11:44:35.892 -> 1998
11:44:35.892 -> 2000
11:44:35.892 -> 2002
11:44:35.892 -> 2003
11:44:35.892 -> 2006
11:44:35.892 -> 2009
11:44:35.892 -> 2007
11:44:35.892 -> 2007
11:44:35.892 -> 2004
11:44:35.892 -> 2001
11:44:35.892 -> 1995
11:44:35.892 -> 1990
11:44:35.892 -> 1983
11:44:35.892 -> 1981
11:44:35.892 -> 1974
11:44:35.892 -> 1970
11:44:35.892 -> 1967
11:44:35.892 -> 1968
11:44:35.892 -> 1969
11:44:35.926 -> 1975
11:44:35.926 -> 1979
11:44:35.926 -> 1985
11:44:35.926 -> 1998
11:44:35.926 -> 2001
11:44:35.926 -> 2006
11:44:35.926 -> 2007
11:44:35.926 -> 2010
11:44:35.926 -> 2011
11:44:35.926 -> 2006
11:44:35.926 -> 2002
11:44:35.926 -> 1997
11:44:35.926 -> 1991
11:44:35.926 -> 1984
11:44:35.926 -> 1983
11:44:35.926 -> 1981
11:44:35.926 -> 1971
11:44:35.926 -> 1968
11:44:35.926 -> 1966
11:44:35.926 -> 1962
11:44:35.926 -> 1959
11:44:35.926 -> 1962
11:44:35.926 -> 1964
11:44:35.926 -> 1968
11:44:35.926 -> 1971
11:44:35.926 -> 1978
11:44:35.926 -> 1984
11:44:35.926 -> 1986
11:44:35.926 -> 1993
11:44:35.926 -> 1995
11:44:35.926 -> 1991
11:44:35.926 -> 2000
11:44:35.926 -> 2000
11:44:35.926 -> 1995
11:44:35.926 -> 1990
11:44:35.926 -> 1983
11:44:35.926 -> 1982
11:44:35.959 -> 1973
11:44:35.959 -> 1969
11:44:35.959 -> 1968
11:44:35.959 -> 1967
11:44:35.959 -> 1967
11:44:35.959 -> 1969
11:44:35.959 -> 1975
11:44:35.959 -> 1982
11:44:35.959 -> 1989
11:44:35.959 -> 1997
11:44:35.959 -> 2002
11:44:35.959 -> 2005
11:44:35.959 -> 2009
11:44:35.959 -> 2009
11:44:35.959 -> 2006
11:44:35.959 -> 2000
11:44:35.959 -> 1999
11:44:35.959 -> 1991
11:44:35.959 -> 1986
11:44:35.959 -> 1981
11:44:35.959 -> 1973
11:44:35.959 -> 1969
11:44:35.959 -> 1968
11:44:35.959 -> 1969
11:44:35.959 -> 1974
11:44:35.959 -> 1983
11:44:35.959 -> 1989
11:44:35.959 -> 1997
11:44:35.959 -> 2011
11:44:35.959 -> 2023
11:44:35.959 -> 2033
11:44:35.959 -> 2055
11:44:35.959 -> 2062
11:44:35.993 -> 2064
11:44:35.993 -> 2067
11:44:35.993 -> 2067
11:44:35.993 -> 2067
11:44:35.993 -> 2065
11:44:35.993 -> 2063
11:44:35.993 -> 2058
11:44:35.993 -> 2047
11:44:35.993 -> 2046
11:44:35.993 -> 2039
11:44:35.993 -> 2045
11:44:35.993 -> 2043
11:44:35.993 -> 2055
11:44:35.993 -> 2062
11:44:35.993 -> 2067
11:44:35.993 -> 2074
11:44:35.993 -> 2082
11:44:35.993 -> 2087
11:44:35.993 -> 2094
11:44:35.993 -> 2096
11:44:35.993 -> 2100
11:44:35.993 -> 2099
11:44:35.993 -> 2097
11:44:35.993 -> 2096
11:44:35.993 -> 2095
11:44:35.993 -> 2079
11:44:35.993 -> 2077
11:44:35.993 -> 2075
11:44:35.993 -> 2071
11:44:35.993 -> 2067
11:44:35.993 -> 2067
11:44:35.993 -> 2067
11:44:36.028 -> 2067
11:44:36.028 -> 2076
11:44:36.028 -> 2081
11:44:36.028 -> 2087
11:44:36.028 -> 2096
11:44:36.028 -> 2097
11:44:36.028 -> 2103
11:44:36.028 -> 2110
11:44:36.028 -> 2111
11:44:36.028 -> 2111
11:44:36.028 -> 2111
11:44:36.028 -> 2111
11:44:36.028 -> 2112
11:44:36.028 -> 2109
11:44:36.028 -> 2102
11:44:36.028 -> 2100
11:44:36.028 -> 2096
11:44:36.028 -> 2095
11:44:36.028 -> 2095
11:44:36.028 -> 2093
11:44:36.028 -> 2096
11:44:36.028 -> 2096
11:44:36.028 -> 2107
11:44:36.028 -> 2110
11:44:36.028 -> 2115
11:44:36.028 -> 2123
11:44:36.028 -> 2126
11:44:36.028 -> 2128
11:44:36.028 -> 2129
11:44:36.028 -> 2129
11:44:36.028 -> 2128
11:44:36.028 -> 2125
11:44:36.028 -> 2119
11:44:36.028 -> 2114
11:44:36.028 -> 2105
11:44:36.028 -> 2097
11:44:36.028 -> 2094
11:44:36.028 -> 2087
11:44:36.063 -> 2083
11:44:36.063 -> 2081
11:44:36.063 -> 2081
11:44:36.063 -> 2080
11:44:36.063 -> 2081
11:44:36.063 -> 2083
11:44:36.063 -> 2086
11:44:36.063 -> 2090
11:44:36.063 -> 2093
11:44:36.063 -> 2095
11:44:36.063 -> 2096
11:44:36.063 -> 2097
11:44:36.063 -> 2096
11:44:36.063 -> 2093
11:44:36.063 -> 2093
11:44:36.063 -> 2085
11:44:36.063 -> 2081
11:44:36.063 -> 2077
11:44:36.063 -> 2071
11:44:36.063 -> 2071
11:44:36.063 -> 2073
11:44:36.063 -> 2074
11:44:36.063 -> 2075
11:44:36.063 -> 2079
11:44:36.063 -> 2086
11:44:36.063 -> 2093
11:44:36.063 -> 2096
11:44:36.063 -> 2102
11:44:36.063 -> 2102
11:44:36.063 -> 2103
11:44:36.063 -> 2103
11:44:36.063 -> 2098
11:44:36.097 -> 2091
11:44:36.097 -> 2082
11:44:36.097 -> 2074
11:44:36.097 -> 2065
11:44:36.097 -> 2061
11:44:36.097 -> 2055
11:44:36.097 -> 2043
11:44:36.097 -> 2039
11:44:36.097 -> 2037
11:44:36.097 -> 2037
11:44:36.097 -> 2042
11:44:36.097 -> 2043
11:44:36.097 -> 2047
11:44:36.097 -> 2063
11:44:36.097 -> 2069
11:44:36.097 -> 2070
11:44:36.097 -> 2076
11:44:36.097 -> 2078
11:44:36.097 -> 2079
11:44:36.097 -> 2078
11:44:36.097 -> 2070
11:44:36.097 -> 2067
11:44:36.097 -> 2064
11:44:36.097 -> 2055
11:44:36.097 -> 2047
11:44:36.097 -> 2039
11:44:36.097 -> 2036
11:44:36.097 -> 2034
11:44:36.097 -> 2039
11:44:36.097 -> 2042
11:44:36.097 -> 2047
11:44:36.097 -> 2059
11:44:36.097 -> 2064
11:44:36.097 -> 2066
11:44:36.097 -> 2073
11:44:36.097 -> 2079
11:44:36.097 -> 2086
11:44:36.131 -> 2092
11:44:36.131 -> 2096
11:44:36.131 -> 2096
11:44:36.131 -> 2096
11:44:36.131 -> 2097
11:44:36.131 -> 2096
11:44:36.131 -> 2096
11:44:36.131 -> 2095
11:44:36.131 -> 2095
11:44:36.131 -> 2095
11:44:36.131 -> 2096
11:44:36.131 -> 2097
11:44:36.131 -> 2102
11:44:36.131 -> 2112
11:44:36.131 -> 2119
11:44:36.131 -> 2123
11:44:36.131 -> 2129
11:44:36.131 -> 2131
11:44:36.131 -> 2135
11:44:36.131 -> 2137
11:44:36.131 -> 2135
11:44:36.131 -> 2135
11:44:36.131 -> 2133
11:44:36.131 -> 2131
11:44:36.131 -> 2128
11:44:36.131 -> 2126
11:44:36.131 -> 2127
11:44:36.131 -> 2128
11:44:36.131 -> 2131
11:44:36.131 -> 2142
11:44:36.131 -> 2155
11:44:36.131 -> 2177
11:44:36.131 -> 2188
11:44:36.166 -> 2211
11:44:36.166 -> 2234
11:44:36.166 -> 2256
11:44:36.166 -> 2279
11:44:36.166 -> 2293
11:44:36.166 -> 2303
11:44:36.166 -> 2317
11:44:36.166 -> 2322
11:44:36.166 -> 2323
11:44:36.166 -> 2319
11:44:36.166 -> 2317
11:44:36.166 -> 2303
11:44:36.166 -> 2289
11:44:36.166 -> 2281
11:44:36.166 -> 2266
11:44:36.166 -> 2253
11:44:36.166 -> 2238
11:44:36.166 -> 2223
11:44:36.166 -> 2213
11:44:36.166 -> 2201
11:44:36.166 -> 2193
11:44:36.166 -> 2190
11:44:36.166 -> 2191
11:44:36.166 -> 2190
11:44:36.166 -> 2189
11:44:36.166 -> 2190
11:44:36.166 -> 2190
11:44:36.166 -> 2190
11:44:36.166 -> 2183
11:44:36.166 -> 2175
11:44:36.166 -> 2165
11:44:36.166 -> 2153
11:44:36.199 -> 2135
11:44:36.199 -> 2122
11:44:36.199 -> 2111
11:44:36.199 -> 2096
11:44:36.199 -> 2089
11:44:36.199 -> 2079
11:44:36.199 -> 2074
11:44:36.199 -> 2070
11:44:36.199 -> 2071
11:44:36.199 -> 2075
11:44:36.199 -> 2074
11:44:36.199 -> 2074
11:44:36.199 -> 2075
11:44:36.199 -> 2073
11:44:36.199 -> 2071
11:44:36.199 -> 2065
11:44:36.199 -> 2063
11:44:36.199 -> 2047
11:44:36.199 -> 2035
11:44:36.199 -> 2025
11:44:36.199 -> 2013
11:44:36.199 -> 2005
11:44:36.199 -> 1998
11:44:36.199 -> 1986
11:44:36.199 -> 1984
11:44:36.199 -> 1980
11:44:36.199 -> 1973
11:44:36.199 -> 1975
11:44:36.199 -> 1979
11:44:36.199 -> 1982
11:44:36.199 -> 1986
11:44:36.199 -> 1991
11:44:36.234 -> 1993
11:44:36.234 -> 1990
11:44:36.234 -> 1994
11:44:36.234 -> 1991
11:44:36.234 -> 1983
11:44:36.234 -> 1975
11:44:36.234 -> 1968
11:44:36.234 -> 1958
11:44:36.234 -> 1947
11:44:36.234 -> 1936
11:44:36.234 -> 1927
11:44:36.234 -> 1918
11:44:36.234 -> 1911
11:44:36.234 -> 1907
11:44:36.234 -> 1908
11:44:36.234 -> 1910
11:44:36.234 -> 1919
11:44:36.234 -> 1927
11:44:36.234 -> 1936
11:44:36.234 -> 1943
11:44:36.234 -> 1949
11:44:36.234 -> 1957
11:44:36.234 -> 1963
11:44:36.234 -> 1968
11:44:36.234 -> 1968
11:44:36.234 -> 1969
11:44:36.234 -> 1968
11:44:36.234 -> 1968
11:44:36.234 -> 1959
11:44:36.234 -> 1958
11:44:36.234 -> 1955
11:44:36.234 -> 1951
11:44:36.234 -> 1950
11:44:36.234 -> 1957
11:44:36.234 -> 1947
11:44:36.234 -> 1944
11:44:36.234 -> 1936
11:44:36.234 -> 1923
11:44:36.267 -> 1917
11:44:36.267 -> 1904
11:44:36.267 -> 1889
11:44:36.267 -> 1872
11:44:36.267 -> 1867
11:44:36.267 -> 1862
11:44:36.267 -> 1865
11:44:36.267 -> 1863
11:44:36.267 -> 1868
11:44:36.267 -> 1874
11:44:36.267 -> 1887
11:44:36.267 -> 1904
11:44:36.267 -> 1927
11:44:36.267 -> 1951
11:44:36.267 -> 1984
11:44:36.267 -> 2023
11:44:36.267 -> 2071
11:44:36.267 -> 2129
11:44:36.267 -> 2197
11:44:36.267 -> 2276
11:44:36.267 -> 2363
11:44:36.267 -> 2455
11:44:36.267 -> 2558
11:44:36.267 -> 2663
11:44:36.267 -> 2759
11:44:36.267 -> 2854
11:44:36.267 -> 2935
11:44:36.267 -> 3015
11:44:36.267 -> 3071
11:44:36.267 -> 3143
11:44:36.267 -> 3197
11:44:36.267 -> 3239
11:44:36.301 -> 3279
11:44:36.301 -> 3319
11:44:36.301 -> 3359
11:44:36.301 -> 3397
11:44:36.301 -> 3441
11:44:36.301 -> 3487
11:44:36.301 -> 3519
11:44:36.301 -> 3531
11:44:36.301 -> 3507
11:44:36.301 -> 3455
11:44:36.301 -> 3379
11:44:36.301 -> 3287
11:44:36.301 -> 3191
11:44:36.301 -> 3089
11:44:36.301 -> 2983
11:44:36.301 -> 2879
11:44:36.301 -> 2783
11:44:36.301 -> 2686
11:44:36.301 -> 2603
11:44:36.301 -> 2514
11:44:36.301 -> 2447
11:44:36.301 -> 2389
11:44:36.301 -> 2343
11:44:36.301 -> 2310
11:44:36.301 -> 2289
11:44:36.301 -> 2275
11:44:36.301 -> 2265
11:44:36.301 -> 2264
11:44:36.301 -> 2267
11:44:36.301 -> 2271
11:44:36.301 -> 2271
11:44:36.301 -> 2268
11:44:36.301 -> 2261
11:44:36.301 -> 2250
11:44:36.301 -> 2231
11:44:36.301 -> 2211
11:44:36.301 -> 2183
11:44:36.336 -> 2159
11:44:36.336 -> 2128
11:44:36.336 -> 2101
11:44:36.336 -> 2071
11:44:36.336 -> 2033
11:44:36.336 -> 2002
11:44:36.336 -> 1980
11:44:36.336 -> 1953
11:44:36.336 -> 1936
11:44:36.336 -> 1926
11:44:36.336 -> 1922
11:44:36.336 -> 1921
11:44:36.336 -> 1920
11:44:36.336 -> 1923
11:44:36.336 -> 1925
11:44:36.336 -> 1927
11:44:36.336 -> 1927
11:44:36.336 -> 1925
11:44:36.336 -> 1919
11:44:36.336 -> 1907
11:44:36.336 -> 1896
11:44:36.336 -> 1884
11:44:36.336 -> 1869
11:44:36.336 -> 1855
11:44:36.336 -> 1840
11:44:36.336 -> 1826
11:44:36.336 -> 1813
11:44:36.336 -> 1807
11:44:36.336 -> 1802
11:44:36.336 -> 1798
11:44:36.336 -> 1797
11:44:36.336 -> 1800
11:44:36.336 -> 1805
11:44:36.371 -> 1809
11:44:36.371 -> 1813
11:44:36.371 -> 1821
11:44:36.371 -> 1824
11:44:36.371 -> 1829
11:44:36.371 -> 1828
11:44:36.371 -> 1829
11:44:36.371 -> 1827
11:44:36.371 -> 1821
11:44:36.371 -> 1818
11:44:36.371 -> 1809
11:44:36.371 -> 1808
11:44:36.371 -> 1797
11:44:36.371 -> 1792
11:44:36.371 -> 1789
11:44:36.371 -> 1790
11:44:36.371 -> 1791
11:44:36.371 -> 1794
11:44:36.371 -> 1796
11:44:36.371 -> 1803
11:44:36.371 -> 1810
11:44:36.371 -> 1821
11:44:36.371 -> 1831
11:44:36.371 -> 1841
11:44:36.371 -> 1847
11:44:36.371 -> 1851
11:44:36.371 -> 1857
11:44:36.371 -> 1846
11:44:36.371 -> 1841
11:44:36.371 -> 1835
11:44:36.371 -> 1823
11:44:36.371 -> 1818
11:44:36.405 -> 1812
11:44:36.405 -> 1809
11:44:36.405 -> 1809
11:44:36.405 -> 1807
11:44:36.405 -> 1808
11:44:36.405 -> 1815
11:44:36.405 -> 1823
11:44:36.405 -> 1827
11:44:36.405 -> 1833
11:44:36.405 -> 1839
11:44:36.405 -> 1844
11:44:36.405 -> 1847
11:44:36.405 -> 1849
11:44:36.405 -> 1850
11:44:36.405 -> 1850
11:44:36.405 -> 1845
11:44:36.405 -> 1843
11:44:36.405 -> 1840
11:44:36.405 -> 1836
11:44:36.405 -> 1832
11:44:36.405 -> 1830
11:44:36.405 -> 1833
11:44:36.405 -> 1837
11:44:36.405 -> 1841
11:44:36.405 -> 1850
11:44:36.405 -> 1860
11:44:36.405 -> 1868
11:44:36.405 -> 1873
11:44:36.405 -> 1879
11:44:36.405 -> 1883
11:44:36.405 -> 1887
11:44:36.405 -> 1882
11:44:36.405 -> 1883
11:44:36.405 -> 1873
11:44:36.405 -> 1869
11:44:36.405 -> 1859
11:44:36.405 -> 1854
11:44:36.439 -> 1845
11:44:36.439 -> 1840
11:44:36.439 -> 1837
11:44:36.439 -> 1833
11:44:36.439 -> 1830
11:44:36.439 -> 1827
11:44:36.439 -> 1830
11:44:36.439 -> 1834
11:44:36.439 -> 1840
11:44:36.439 -> 1842
11:44:36.439 -> 1850
11:44:36.439 -> 1855
11:44:36.439 -> 1857
11:44:36.439 -> 1866
11:44:36.439 -> 1872
11:44:36.439 -> 1876
11:44:36.439 -> 1877
11:44:36.439 -> 1879
11:44:36.439 -> 1875
11:44:36.439 -> 1872
11:44:36.439 -> 1870
11:44:36.439 -> 1862
11:44:36.439 -> 1855
11:44:36.439 -> 1853
11:44:36.439 -> 1847
11:44:36.439 -> 1847
11:44:36.439 -> 1849
11:44:36.439 -> 1854
11:44:36.439 -> 1859
11:44:36.439 -> 1863
11:44:36.439 -> 1871
11:44:36.439 -> 1875
11:44:36.439 -> 1882
11:44:36.474 -> 1893
11:44:36.474 -> 1901
11:44:36.474 -> 1905
11:44:36.474 -> 1911
11:44:36.474 -> 1915
11:44:36.474 -> 1912
11:44:36.474 -> 1910
11:44:36.474 -> 1907
11:44:36.474 -> 1903
11:44:36.474 -> 1901
11:44:36.474 -> 1893
11:44:36.474 -> 1892
11:44:36.474 -> 1891
11:44:36.474 -> 1894
11:44:36.474 -> 1899
11:44:36.474 -> 1903
11:44:36.474 -> 1905
11:44:36.474 -> 1914
11:44:36.474 -> 1919
11:44:36.474 -> 1926
11:44:36.474 -> 1932
11:44:36.474 -> 1939
11:44:36.474 -> 1943
11:44:36.474 -> 1950
11:44:36.474 -> 1951
11:44:36.474 -> 1953
11:44:36.474 -> 1951
11:44:36.474 -> 1952
11:44:36.474 -> 1955
11:44:36.474 -> 1953
11:44:36.474 -> 1954
11:44:36.474 -> 1958
11:44:36.507 -> 1956
11:44:36.507 -> 1962
11:44:36.507 -> 1966
11:44:36.507 -> 1969
11:44:36.507 -> 1974
11:44:36.507 -> 1978
11:44:36.507 -> 1983
11:44:36.507 -> 1985
11:44:36.507 -> 1990
11:44:36.507 -> 1994
11:44:36.507 -> 1996
11:44:36.507 -> 1999
11:44:36.507 -> 2000
11:44:36.507 -> 2000
11:44:36.507 -> 1997
11:44:36.507 -> 1998
11:44:36.507 -> 1997
11:44:36.507 -> 1998
11:44:36.507 -> 1997
11:44:36.507 -> 1998
11:44:36.507 -> 2000
11:44:36.507 -> 2007
11:44:36.507 -> 2017
11:44:36.507 -> 2026
11:44:36.507 -> 2034
11:44:36.507 -> 2047
11:44:36.507 -> 2063
11:44:36.507 -> 2075
11:44:36.507 -> 2086
11:44:36.507 -> 2096
11:44:36.507 -> 2103
11:44:36.507 -> 2111
11:44:36.507 -> 2114
11:44:36.507 -> 2114
11:44:36.507 -> 2115
11:44:36.507 -> 2112
11:44:36.507 -> 2114
11:44:36.542 -> 2115
11:44:36.542 -> 2115
11:44:36.542 -> 2116
11:44:36.542 -> 2123
11:44:36.542 -> 2129
11:44:36.542 -> 2139
11:44:36.542 -> 2148
11:44:36.542 -> 2159
11:44:36.542 -> 2169
11:44:36.542 -> 2182
11:44:36.542 -> 2191
11:44:36.542 -> 2203
11:44:36.542 -> 2207
11:44:36.542 -> 2214
11:44:36.542 -> 2217
11:44:36.542 -> 2222
11:44:36.542 -> 2218
11:44:36.542 -> 2218
11:44:36.542 -> 2210
11:44:36.542 -> 2207
11:44:36.542 -> 2206
11:44:36.542 -> 2201
11:44:36.542 -> 2199
11:44:36.542 -> 2201
11:44:36.542 -> 2205
11:44:36.542 -> 2207
11:44:36.542 -> 2219
11:44:36.542 -> 2223
11:44:36.542 -> 2227
11:44:36.542 -> 2234
11:44:36.542 -> 2238
11:44:36.542 -> 2247
11:44:36.542 -> 2253
11:44:36.576 -> 2257
11:44:36.576 -> 2263
11:44:36.576 -> 2269
11:44:36.576 -> 2271
11:44:36.576 -> 2276
11:44:36.576 -> 2279
11:44:36.576 -> 2283
11:44:36.576 -> 2286
11:44:36.576 -> 2288
11:44:36.576 -> 2290
11:44:36.576 -> 2289
11:44:36.576 -> 2295
11:44:36.576 -> 2301
11:44:36.576 -> 2302
11:44:36.576 -> 2307
11:44:36.576 -> 2310
11:44:36.576 -> 2313
11:44:36.576 -> 2319
11:44:36.576 -> 2315
11:44:36.576 -> 2309
11:44:36.576 -> 2313
11:44:36.576 -> 2305
11:44:36.576 -> 2297
11:44:36.576 -> 2287
11:44:36.576 -> 2267
11:44:36.576 -> 2251
11:44:36.576 -> 2231
11:44:36.576 -> 2215
11:44:36.576 -> 2195
11:44:36.576 -> 2179
11:44:36.576 -> 2167
11:44:36.576 -> 2159
11:44:36.576 -> 2147
11:44:36.576 -> 2146
11:44:36.576 -> 2143
11:44:36.576 -> 2138
11:44:36.576 -> 2138
11:44:36.611 -> 2133
11:44:36.611 -> 2128
11:44:36.611 -> 2123
11:44:36.611 -> 2112
11:44:36.611 -> 2107
11:44:36.611 -> 2091
11:44:36.611 -> 2073
11:44:36.611 -> 2055
11:44:36.611 -> 2032
11:44:36.611 -> 2013
11:44:36.611 -> 1997
11:44:36.611 -> 1981
11:44:36.611 -> 1964
11:44:36.611 -> 1953
11:44:36.611 -> 1941
11:44:36.611 -> 1933
11:44:36.611 -> 1927
11:44:36.611 -> 1919
11:44:36.611 -> 1918
11:44:36.611 -> 1917
11:44:36.611 -> 1911
11:44:36.611 -> 1915
11:44:36.611 -> 1914
11:44:36.611 -> 1911
11:44:36.611 -> 1906
11:44:36.611 -> 1903
11:44:36.611 -> 1894
11:44:36.611 -> 1887
11:44:36.611 -> 1878
11:44:36.611 -> 1868
11:44:36.611 -> 1860
11:44:36.611 -> 1853
11:44:36.644 -> 1846
11:44:36.644 -> 1843
11:44:36.644 -> 1843
11:44:36.644 -> 1845
11:44:36.644 -> 1855
11:44:36.644 -> 1859
11:44:36.644 -> 1865
11:44:36.644 -> 1871
11:44:36.644 -> 1873
11:44:36.644 -> 1874
11:44:36.644 -> 1873
11:44:36.644 -> 1877
11:44:36.644 -> 1875
11:44:36.644 -> 1872
11:44:36.644 -> 1863
11:44:36.644 -> 1856
11:44:36.644 -> 1851
11:44:36.644 -> 1843
11:44:36.644 -> 1840
11:44:36.644 -> 1835
11:44:36.644 -> 1833
11:44:36.644 -> 1833
11:44:36.644 -> 1833
11:44:36.644 -> 1835
11:44:36.644 -> 1841
11:44:36.644 -> 1847
11:44:36.644 -> 1854
11:44:36.644 -> 1858
11:44:36.644 -> 1863
11:44:36.644 -> 1869
11:44:36.644 -> 1869
11:44:36.644 -> 1867
11:44:36.644 -> 1863
11:44:36.679 -> 1863
11:44:36.679 -> 1857
11:44:36.679 -> 1847
11:44:36.679 -> 1840
11:44:36.679 -> 1831
11:44:36.679 -> 1824
11:44:36.679 -> 1812
11:44:36.679 -> 1810
11:44:36.679 -> 1808
11:44:36.679 -> 1808
11:44:36.679 -> 1814
11:44:36.679 -> 1823
11:44:36.679 -> 1834
11:44:36.679 -> 1842
11:44:36.679 -> 1851
11:44:36.679 -> 1865
11:44:36.679 -> 1865
11:44:36.679 -> 1870
11:44:36.679 -> 1870
11:44:36.679 -> 1867
11:44:36.679 -> 1869
11:44:36.679 -> 1865
11:44:36.679 -> 1858
11:44:36.679 -> 1851
11:44:36.679 -> 1844
11:44:36.679 -> 1840
11:44:36.679 -> 1836
11:44:36.679 -> 1833
11:44:36.679 -> 1831
11:44:36.679 -> 1835
11:44:36.679 -> 1839
11:44:36.679 -> 1841
11:44:36.679 -> 1845
11:44:36.679 -> 1851
11:44:36.679 -> 1859
11:44:36.679 -> 1863
11:44:36.679 -> 1872
11:44:36.713 -> 1875
11:44:36.713 -> 1878
11:44:36.713 -> 1875
11:44:36.713 -> 1875
11:44:36.713 -> 1869
11:44:36.713 -> 1866
11:44:36.713 -> 1856
11:44:36.713 -> 1847
11:44:36.713 -> 1840
11:44:36.713 -> 1838
11:44:36.713 -> 1835
11:44:36.713 -> 1836
11:44:36.713 -> 1841
11:44:36.713 -> 1849
11:44:36.713 -> 1859
11:44:36.713 -> 1872
11:44:36.713 -> 1884
11:44:36.713 -> 1894
11:44:36.713 -> 1904
11:44:36.713 -> 1913
11:44:36.713 -> 1919
11:44:36.713 -> 1921
11:44:36.713 -> 1919
11:44:36.713 -> 1918
11:44:36.713 -> 1909
11:44:36.713 -> 1905
11:44:36.713 -> 1901
11:44:36.713 -> 1894
11:44:36.713 -> 1885
11:44:36.713 -> 1887
11:44:36.713 -> 1881
11:44:36.713 -> 1882
11:44:36.746 -> 1884
11:44:36.746 -> 1888
11:44:36.746 -> 1893
11:44:36.746 -> 1904
11:44:36.746 -> 1911
11:44:36.746 -> 1920
11:44:36.746 -> 1929
11:44:36.746 -> 1938
11:44:36.746 -> 1936
11:44:36.746 -> 1941
11:44:36.746 -> 1938
11:44:36.746 -> 1936
11:44:36.746 -> 1936
11:44:36.746 -> 1927
11:44:36.746 -> 1920
11:44:36.746 -> 1910
11:44:36.746 -> 1904
11:44:36.746 -> 1899
11:44:36.746 -> 1898
11:44:36.746 -> 1898
11:44:36.746 -> 1904
11:44:36.746 -> 1904
11:44:36.746 -> 1915
11:44:36.746 -> 1920
11:44:36.746 -> 1936
11:44:36.746 -> 1942
11:44:36.746 -> 1951
11:44:36.746 -> 1955
11:44:36.746 -> 1959
11:44:36.746 -> 1961
11:44:36.746 -> 1965
11:44:36.746 -> 1962
11:44:36.746 -> 1961
11:44:36.781 -> 1959
11:44:36.781 -> 1958
11:44:36.781 -> 1953
11:44:36.781 -> 1949
11:44:36.781 -> 1943
11:44:36.781 -> 1942
11:44:36.781 -> 1941
11:44:36.781 -> 1942
11:44:36.781 -> 1945
11:44:36.781 -> 1950
11:44:36.781 -> 1955
11:44:36.781 -> 1968
11:44:36.781 -> 1972
11:44:36.781 -> 1983
11:44:36.781 -> 1986
11:44:36.781 -> 1991
11:44:36.781 -> 1987
11:44:36.781 -> 1983
11:44:36.781 -> 1978
11:44:36.781 -> 1969
11:44:36.781 -> 1966
11:44:36.781 -> 1957
11:44:36.781 -> 1952
11:44:36.781 -> 1947
11:44:36.781 -> 1951
11:44:36.781 -> 1949
11:44:36.781 -> 1951
11:44:36.781 -> 1955
11:44:36.781 -> 1958
11:44:36.781 -> 1967
11:44:36.781 -> 1969
11:44:36.781 -> 1975
11:44:36.781 -> 1981
11:44:36.781 -> 1983
11:44:36.781 -> 1986
11:44:36.781 -> 1985
11:44:36.781 -> 1979
11:44:36.816 -> 1968
11:44:36.816 -> 1965
11:44:36.816 -> 1957
11:44:36.816 -> 1947
11:44:36.816 -> 1938
